Time (s),Shift (nm)
0.0,0.0
0.1999999999999886,0.0009450000000001
0.4000000000000341,0.0018290000000003
0.6000000000000227,0.0029799999999999
0.8000000000000114,0.004213
1.0,0.0057420000000001
1.1999999999999886,0.0058160000000002
1.400000000000034,0.005141
1.6000000000000227,0.006259
1.8000000000000114,0.007057
2.0,0.0088380000000003
2.1999999999999886,0.012661
2.400000000000034,0.0173010000000002
2.6000000000000227,0.0212980000000002
2.800000000000012,0.025573
3.0,0.0283260000000002
3.1999999999999886,0.0313430000000001
3.400000000000034,0.036381
3.6000000000000227,0.039905
3.8000000000000114,0.0431380000000003
4.0,0.0482080000000002
4.199999999999989,0.0527920000000001
4.400000000000034,0.0559500000000001
4.600000000000023,0.0600960000000001
4.800000000000011,0.0635090000000002
5.0,0.0666360000000003
5.199999999999989,0.0680430000000003
5.400000000000034,0.069201
5.600000000000023,0.0702120000000001
5.800000000000011,0.0716780000000003
6.0,0.0720810000000002
6.199999999999989,0.0742410000000002
6.400000000000034,0.0763530000000001
6.600000000000023,0.0788410000000001
6.800000000000011,0.0827040000000001
7.0,0.0872260000000002
7.199999999999989,0.0911940000000002
7.400000000000034,0.0936639999999999
7.600000000000023,0.095364
7.800000000000011,0.096203
8.0,0.0977640000000001
8.199999999999989,0.0988359999999999
8.400000000000034,0.100816
8.600000000000023,0.1022950000000002
8.800000000000011,0.103714
9.0,0.105582
9.199999999999989,0.1088629999999999
9.400000000000034,0.1128180000000003
9.600000000000025,0.116219
9.800000000000011,0.1211670000000002
10.0,0.125026
10.199999999999989,0.1276640000000002
10.400000000000034,0.128902
10.600000000000025,0.129988
10.800000000000011,0.130131
11.0,0.1289440000000001
11.199999999999989,0.1290040000000001
11.400000000000034,0.1295030000000001
11.600000000000025,0.1295490000000003
11.800000000000011,0.1300150000000002
12.0,0.1331329999999999
12.199999999999989,0.1374270000000002
12.400000000000034,0.142284
12.600000000000025,0.148193
12.800000000000011,0.1516779999999999
13.0,0.1536300000000001
13.199999999999989,0.1545640000000001
13.400000000000034,0.1548660000000001
13.600000000000025,0.1558950000000001
13.800000000000011,0.1587870000000002
14.0,0.1627640000000001
14.199999999999989,0.165718
14.400000000000034,0.1696980000000003
14.600000000000025,0.1714570000000002
14.800000000000011,0.1711949999999999
15.0,0.170541
15.199999999999989,0.171704
15.400000000000034,0.1725289999999999
15.600000000000025,0.1748400000000001
15.800000000000011,0.1796269999999999
16.0,0.1819900000000003
16.19999999999999,0.183837
16.400000000000034,0.1851039999999999
16.600000000000023,0.1872920000000002
16.80000000000001,0.1877440000000003
17.0,0.1895329999999999
17.19999999999999,0.1904190000000003
17.400000000000034,0.190909
17.600000000000023,0.1911490000000002
17.80000000000001,0.1928940000000003
18.0,0.1960010000000003
18.19999999999999,0.1983520000000003
18.400000000000038,0.200927
18.600000000000023,0.2008140000000002
18.80000000000001,0.1987080000000003
19.0,0.196066
19.19999999999999,0.194979
19.400000000000038,0.1944250000000003
19.600000000000023,0.1958329999999999
19.80000000000001,0.1983360000000003
20.0,0.2020300000000001
20.19999999999999,0.2047560000000001
20.400000000000038,0.2074860000000002
20.600000000000023,0.209403
20.80000000000001,0.2126460000000003
21.0,0.2158070000000003
21.19999999999999,0.2185220000000001
21.400000000000038,0.2188530000000002
21.600000000000023,0.2204040000000002
21.80000000000001,0.2216370000000003
22.0,0.2202280000000001
22.19999999999999,0.21754
22.400000000000038,0.2169470000000002
22.600000000000023,0.2168080000000003
22.80000000000001,0.2164250000000001
23.0,0.2181540000000001
23.19999999999999,0.22133
23.400000000000038,0.2233050000000003
23.600000000000023,0.2246730000000001
23.80000000000001,0.2250610000000001
24.0,0.2249829999999999
24.19999999999999,0.2249400000000001
24.400000000000038,0.2297260000000003
24.600000000000023,0.2359580000000001
24.80000000000001,0.2426940000000002
25.0,0.2477520000000002
25.19999999999999,0.250912
25.400000000000038,0.249613
25.600000000000023,0.2474660000000001
25.80000000000001,0.2458360000000001
26.0,0.2453410000000002
26.19999999999999,0.2458120000000003
26.400000000000038,0.2475720000000003
26.600000000000023,0.249152
26.80000000000001,0.248761
27.0,0.24757
27.19999999999999,0.2479520000000001
27.400000000000038,0.2492849999999999
27.600000000000023,0.2498789999999999
27.80000000000001,0.2534450000000001
28.0,0.2576010000000002
28.19999999999999,0.260291
28.400000000000038,0.260189
28.600000000000023,0.2604120000000001
28.80000000000001,0.2593230000000002
29.0,0.2570960000000002
29.19999999999999,0.255805
29.400000000000038,0.258038
29.600000000000023,0.2621260000000003
29.80000000000001,0.2659830000000003
30.0,0.2691650000000001
30.19999999999999,0.2717650000000002
30.400000000000038,0.2728730000000001
30.600000000000023,0.2730810000000003
30.80000000000001,0.2720470000000001
31.0,0.271849
31.19999999999999,0.2724260000000003
31.400000000000038,0.272815
31.600000000000023,0.2744330000000001
31.80000000000001,0.2763900000000001
32.0,0.2788110000000001
32.19999999999999,0.2793830000000001
32.400000000000034,0.2791970000000003
32.60000000000002,0.2765430000000002
32.80000000000001,0.2746889999999999
33.0,0.2744810000000002
33.19999999999999,0.2771760000000003
33.400000000000034,0.2803740000000001
33.60000000000002,0.2827269999999999
33.80000000000001,0.2844470000000001
34.0,0.2858140000000002
34.19999999999999,0.285879
34.400000000000034,0.2866090000000003
34.60000000000002,0.2902960000000001
34.80000000000001,0.2944850000000003
35.0,0.2960690000000001
35.19999999999999,0.296268
35.400000000000034,0.296221
35.60000000000002,0.2956210000000001
35.80000000000001,0.2959480000000001
36.0,0.2979579999999999
36.19999999999999,0.2996180000000001
36.400000000000034,0.301971
36.60000000000002,0.3035480000000001
36.80000000000001,0.303617
37.0,0.302654
37.19999999999999,0.3034340000000002
37.400000000000034,0.3027260000000003
37.60000000000002,0.3022720000000003
37.80000000000001,0.3028349999999999
38.0,0.3064360000000001
38.19999999999999,0.309523
38.400000000000034,0.3117010000000002
38.60000000000002,0.3127200000000001
38.80000000000001,0.3141830000000003
39.0,0.3146219999999999
39.19999999999999,0.3152310000000002
39.400000000000034,0.3174369999999999
39.60000000000002,0.319166
39.80000000000001,0.318492
40.0,0.317282
40.19999999999999,0.3165400000000002
40.400000000000034,0.3151390000000003
40.60000000000002,0.315004
40.80000000000001,0.3166570000000002
41.0,0.3181590000000001
41.19999999999999,0.318934
41.400000000000034,0.3202160000000003
41.60000000000002,0.3224740000000001
41.80000000000001,0.3243910000000003
42.0,0.3249189999999999
42.19999999999999,0.3267610000000003
42.400000000000034,0.3281710000000002
42.60000000000002,0.3301160000000003
42.80000000000001,0.3315080000000003
43.0,0.3336460000000003
43.19999999999999,0.3345500000000001
43.400000000000034,0.3347610000000003
43.60000000000002,0.3336380000000001
43.80000000000001,0.3327390000000001
44.0,0.3337400000000001
44.19999999999999,0.336875
44.400000000000034,0.3413159999999999
44.60000000000002,0.342924
44.80000000000001,0.345688
45.0,0.347032
45.19999999999999,0.345955
45.400000000000034,0.3434720000000002
45.60000000000002,0.3442160000000003
45.80000000000001,0.3443309999999999
46.0,0.3450800000000003
46.19999999999999,0.3462940000000003
46.400000000000034,0.3474870000000001
46.60000000000002,0.3473280000000001
46.80000000000001,0.3457859999999999
47.0,0.345415
47.19999999999999,0.3461470000000002
47.400000000000034,0.349996
47.60000000000002,0.3540240000000003
47.80000000000001,0.359035
48.0,0.3613889999999999
48.19999999999999,0.3624330000000002
48.400000000000034,0.3610869999999999
48.60000000000002,0.3601710000000002
48.80000000000001,0.358568
49.0,0.3591260000000003
49.19999999999999,0.3600000000000003
49.400000000000034,0.3611360000000001
49.60000000000002,0.3613840000000001
49.80000000000001,0.3624849999999999
50.0,0.3625229999999999
50.19999999999999,0.3636720000000002
50.400000000000034,0.3634600000000003
50.60000000000002,0.363855
50.80000000000001,0.3639930000000002
51.0,0.3644380000000002
51.19999999999999,0.3639240000000003
51.400000000000034,0.3658490000000003
51.60000000000002,0.3671630000000001
51.80000000000001,0.3700290000000001
52.0,0.3719100000000002
52.19999999999999,0.3722340000000002
52.400000000000034,0.370247
52.60000000000002,0.3700050000000003
52.80000000000001,0.3697620000000001
53.0,0.3686199999999999
53.19999999999999,0.3698909999999999
53.400000000000034,0.370346
53.60000000000002,0.369796
53.80000000000001,0.3691249999999999
54.0,0.3710200000000001
54.19999999999999,0.3718880000000002
54.400000000000034,0.3735200000000001
54.60000000000002,0.376379
54.80000000000001,0.379
55.0,0.3805590000000003
55.19999999999999,0.3810860000000002
55.400000000000034,0.382393
55.60000000000002,0.3814350000000002
55.80000000000001,0.3796729999999999
56.0,0.3779150000000002
56.19999999999999,0.376929
56.400000000000034,0.3774170000000003
56.60000000000002,0.3777730000000003
56.80000000000001,0.3792400000000002
57.0,0.3821240000000001
57.19999999999999,0.3850359999999999
57.400000000000034,0.3872550000000001
57.60000000000002,0.3900550000000002
57.80000000000001,0.3916430000000002
58.0,0.3911350000000002
58.19999999999999,0.3905790000000002
58.400000000000034,0.3895430000000002
58.60000000000002,0.388814
58.80000000000001,0.3887930000000001
59.0,0.3894280000000001
59.19999999999999,0.3910750000000003
59.400000000000034,0.3934550000000003
59.60000000000002,0.3957809999999999
59.80000000000001,0.3973219999999999
60.0,0.3980860000000001
60.19999999999999,0.3987440000000002
60.400000000000034,0.3985240000000001
60.60000000000002,0.3991850000000001
60.80000000000001,0.3996750000000002
61.0,0.4014950000000001
61.19999999999999,0.401837
61.400000000000034,0.4029570000000002
61.60000000000002,0.4038600000000003
61.80000000000001,0.4054960000000003
62.00000000000006,0.4056770000000003
62.19999999999999,0.4073760000000002
62.400000000000034,0.4089469999999999
62.599999999999966,0.4098330000000003
62.80000000000001,0.409561
63.00000000000006,0.4089610000000001
63.19999999999999,0.4084790000000002
63.400000000000034,0.4073869999999999
63.599999999999966,0.4074409999999999
63.80000000000001,0.4083110000000003
64.00000000000006,0.4102350000000001
64.19999999999999,0.4117380000000001
64.40000000000003,0.413958
64.59999999999997,0.4145110000000001
64.80000000000001,0.4135790000000003
65.00000000000006,0.4126820000000002
65.19999999999999,0.4130340000000001
65.40000000000003,0.4149960000000003
65.59999999999997,0.4164310000000002
65.80000000000001,0.4178730000000001
66.00000000000006,0.41838
66.19999999999999,0.417662
66.40000000000003,0.4151549999999999
66.59999999999997,0.4153440000000001
66.80000000000001,0.4168250000000002
67.00000000000006,0.4196010000000001
67.19999999999999,0.420963
67.40000000000003,0.422085
67.59999999999997,0.421386
67.80000000000001,0.4204989999999999
68.00000000000006,0.4195320000000002
68.19999999999999,0.4208630000000002
68.40000000000003,0.423194
68.59999999999997,0.4250350000000003
68.80000000000001,0.4259919999999999
69.00000000000006,0.4272089999999999
69.19999999999999,0.4276930000000001
69.40000000000003,0.4280630000000003
69.59999999999997,0.4290690000000001
69.80000000000001,0.4319070000000002
70.00000000000006,0.4328530000000001
70.19999999999999,0.4347720000000001
70.40000000000003,0.4352200000000001
70.59999999999997,0.4374150000000001
70.80000000000001,0.4387160000000003
71.00000000000006,0.4412899999999999
71.19999999999999,0.4420420000000002
71.40000000000003,0.4442140000000001
71.59999999999997,0.444067
71.80000000000001,0.443864
72.00000000000006,0.4429620000000001
72.19999999999999,0.4433410000000002
72.40000000000003,0.44279
72.59999999999997,0.443702
72.80000000000001,0.444747
73.00000000000006,0.4453110000000002
73.19999999999999,0.444893
73.40000000000003,0.4442030000000003
73.59999999999997,0.4432260000000001
73.80000000000001,0.442434
74.00000000000006,0.4433199999999999
74.19999999999999,0.4443440000000001
74.40000000000003,0.4448590000000001
74.59999999999997,0.4459460000000002
74.80000000000001,0.4474430000000002
75.00000000000006,0.4491849999999999
75.19999999999999,0.4507069999999999
75.40000000000003,0.4524000000000003
75.59999999999997,0.4519360000000003
75.80000000000001,0.4520690000000003
76.00000000000006,0.4519290000000002
76.19999999999999,0.4523000000000001
76.40000000000003,0.4503470000000003
76.59999999999997,0.4508510000000001
76.80000000000001,0.4522490000000001
77.00000000000006,0.4537059999999999
77.19999999999999,0.454304
77.40000000000003,0.4576320000000002
77.59999999999997,0.4591180000000001
77.80000000000001,0.4589250000000002
78.00000000000006,0.4575290000000001
78.19999999999999,0.4566750000000001
78.40000000000003,0.456099
78.59999999999997,0.4574100000000003
78.80000000000001,0.459019
79.00000000000006,0.460286
79.19999999999999,0.4610180000000001
79.40000000000003,0.4614230000000003
79.59999999999997,0.4611140000000002
79.80000000000001,0.4606530000000002
80.00000000000006,0.461513
80.19999999999999,0.4623020000000002
80.40000000000003,0.4634210000000003
80.59999999999997,0.4641680000000003
80.80000000000001,0.465071
81.00000000000006,0.4652000000000003
81.19999999999999,0.4647369999999999
81.40000000000003,0.4651050000000003
81.59999999999997,0.466348
81.80000000000001,0.4671290000000003
82.00000000000006,0.4670200000000002
82.19999999999999,0.4673899999999999
82.40000000000003,0.4671790000000002
82.59999999999997,0.467384
82.80000000000001,0.4670320000000001
83.00000000000006,0.4696040000000003
83.19999999999999,0.4729339999999999
83.40000000000003,0.4765510000000001
83.59999999999997,0.479441
83.80000000000001,0.4804319999999999
84.00000000000006,0.4802680000000001
84.19999999999999,0.4796330000000002
84.40000000000003,0.4783159999999999
84.59999999999997,0.4767320000000001
84.80000000000001,0.4761220000000001
85.00000000000006,0.4754130000000001
85.19999999999999,0.4738640000000003
85.40000000000003,0.4731240000000003
85.59999999999997,0.4714420000000001
85.80000000000001,0.4718080000000002
86.00000000000006,0.4726460000000001
86.19999999999999,0.4766520000000001
86.40000000000003,0.4795009999999999
86.59999999999997,0.4827050000000001
86.80000000000001,0.484944
87.00000000000006,0.4872010000000002
87.19999999999999,0.4886470000000003
87.40000000000003,0.4903600000000003
87.59999999999997,0.4907220000000003
87.80000000000001,0.4896370000000001
88.00000000000006,0.4896150000000001
88.19999999999999,0.4886319999999999
88.40000000000003,0.4879980000000001
88.59999999999997,0.487479
88.80000000000001,0.4898960000000003
89.00000000000006,0.488852
89.19999999999999,0.489014
89.40000000000003,0.4877869999999999
89.59999999999997,0.4907699999999999
89.80000000000001,0.4914460000000002
90.00000000000006,0.4939010000000001
90.2,0.4930300000000001
90.40000000000003,0.4948100000000002
90.59999999999997,0.4928289999999999
90.8,0.4925170000000003
91.00000000000006,0.4931860000000001
91.2,0.4957700000000002
91.40000000000003,0.4958150000000003
91.59999999999997,0.495838
91.8,0.4946170000000003
92.00000000000006,0.4939080000000002
92.2,0.4929909999999999
92.40000000000003,0.4949190000000003
92.59999999999997,0.4980230000000003
92.8,0.5013830000000001
93.00000000000006,0.5025220000000004
93.2,0.5030640000000002
93.40000000000003,0.5018150000000001
93.59999999999997,0.501798
93.8,0.5022440000000001
94.00000000000006,0.5033160000000003
94.2,0.5030780000000004
94.40000000000003,0.5032480000000001
94.59999999999997,0.501303
94.8,0.5002020000000003
95.00000000000006,0.5002970000000002
95.2,0.5021660000000003
95.40000000000003,0.5026840000000004
95.59999999999997,0.5024030000000002
95.8,0.502256
96.00000000000006,0.5023770000000001
96.2,0.5042780000000002
96.40000000000003,0.5064299999999999
96.59999999999997,0.5093360000000002
96.8,0.509693
97.00000000000006,0.5098600000000002
97.2,0.5091330000000003
97.40000000000003,0.510097
97.59999999999997,0.510926
97.8,0.513299
98.00000000000006,0.5158260000000001
98.2,0.5181460000000002
98.40000000000003,0.5162780000000002
98.59999999999997,0.5162110000000002
98.8,0.5164409999999999
99.00000000000006,0.51546
99.2,0.5132590000000001
99.40000000000003,0.5147880000000002
99.59999999999997,0.5152900000000002
99.8,0.5152749999999999
100.00000000000006,0.5164530000000003
100.2,0.5179400000000003
100.40000000000003,0.518758
100.59999999999997,0.5197320000000003
100.8,0.5205440000000001
101.00000000000006,0.519968
101.2,0.5197700000000003
101.40000000000003,0.5203040000000003
101.59999999999997,0.521557
101.8,0.5228260000000002
102.00000000000006,0.5241570000000002
102.2,0.5251190000000001
102.40000000000003,0.525306
102.59999999999997,0.5256590000000001
102.8,0.52576
103.00000000000006,0.5255450000000002
103.2,0.5246690000000003
103.40000000000003,0.5240480000000001
103.59999999999997,0.5228650000000004
103.8,0.522561
104.00000000000006,0.524416
104.2,0.5267080000000002
104.40000000000003,0.529487
104.59999999999997,0.530964
104.8,0.5316750000000003
105.00000000000006,0.5302930000000003
105.2,0.529884
105.40000000000003,0.529496
105.59999999999997,0.5284580000000001
105.8,0.5278210000000003
106.00000000000006,0.526958
106.2,0.5279030000000002
106.40000000000003,0.5281950000000002
106.59999999999997,0.5307780000000002
106.8,0.5331220000000001
107.00000000000006,0.536578
107.2,0.5375160000000001
107.40000000000003,0.5370280000000003
107.59999999999997,0.5377460000000003
107.8,0.5375270000000003
108.00000000000006,0.5379290000000001
108.2,0.5381720000000003
108.40000000000003,0.5405610000000003
108.59999999999997,0.5415870000000003
108.8,0.5438300000000003
109.00000000000006,0.5447010000000003
109.2,0.5441220000000002
109.40000000000003,0.5440400000000003
109.59999999999997,0.542726
109.8,0.5412470000000003
110.00000000000006,0.539803
110.2,0.5422090000000002
110.40000000000003,0.5441000000000003
110.59999999999997,0.5465430000000002
110.8,0.5483580000000003
111.00000000000006,0.5491670000000002
111.2,0.5485990000000003
111.40000000000003,0.5463010000000001
111.59999999999997,0.5434160000000001
111.8,0.542942
112.00000000000006,0.5444500000000003
112.2,0.5472140000000003
112.40000000000003,0.549461
112.59999999999997,0.5530950000000003
112.8,0.5537640000000001
113.00000000000006,0.5542050000000001
113.2,0.551793
113.40000000000003,0.5518450000000001
113.59999999999997,0.5508510000000002
113.8,0.5503690000000003
114.00000000000006,0.5491950000000001
114.2,0.549185
114.40000000000003,0.5482270000000002
114.59999999999997,0.5472060000000001
114.8,0.5477940000000001
115.00000000000006,0.5489060000000001
115.2,0.5493130000000002
115.40000000000003,0.55063
115.59999999999997,0.5530220000000003
115.8,0.555374
116.00000000000006,0.5577900000000002
116.2,0.5591560000000002
116.40000000000003,0.5598290000000001
116.59999999999997,0.55932
116.8,0.5593560000000002
117.00000000000006,0.558745
117.2,0.55959
117.40000000000003,0.5597340000000002
117.59999999999997,0.5604240000000003
117.8,0.5601750000000001
118.00000000000006,0.560222
118.2,0.5599020000000001
118.40000000000003,0.5596040000000002
118.59999999999997,0.5600550000000002
118.8,0.5606500000000003
119.00000000000006,0.5622960000000004
119.2,0.5654280000000003
119.40000000000003,0.568791
119.59999999999997,0.569617
119.8,0.5679910000000001
120.00000000000006,0.5650330000000001
120.2,0.5601790000000002
120.40000000000003,0.5572570000000003
120.59999999999997,0.556467
120.8,0.5596200000000002
121.00000000000006,0.561366
121.2,0.5656920000000003
121.40000000000003,0.5682010000000002
121.59999999999997,0.570919
121.8,0.571266
122.00000000000006,0.5718320000000001
122.2,0.5707720000000003
122.40000000000003,0.5708630000000001
122.59999999999997,0.569175
122.8,0.5675340000000002
123.00000000000006,0.565677
123.2,0.5648020000000002
123.40000000000003,0.5632710000000003
123.59999999999997,0.5650140000000001
