Time (s),Shift (nm)
0.0,0.0
0.1999999999999886,0.0032260000000001
0.3999999999999772,0.0054710000000004
0.5999999999999659,0.0084630000000003
0.7999999999999545,0.0117420000000003
0.9999999999999432,0.0164400000000002
1.1999999999999318,0.0217630000000004
1.3999999999999204,0.0281650000000004
1.599999999999909,0.0349250000000003
1.7999999999999543,0.0407570000000001
1.9999999999999432,0.0458200000000004
2.199999999999932,0.0477770000000004
2.3999999999999204,0.051949
2.599999999999909,0.0588680000000003
2.7999999999999545,0.0650020000000002
2.999999999999943,0.068362
3.199999999999932,0.0730810000000001
3.3999999999999204,0.0761010000000004
3.599999999999909,0.077601
3.7999999999999545,0.0791020000000002
3.999999999999943,0.0818150000000002
4.199999999999932,0.084565
4.39999999999992,0.0886250000000004
4.599999999999909,0.0941880000000003
4.7999999999999545,0.1003340000000001
4.999999999999943,0.1065120000000003
5.199999999999932,0.1113680000000001
5.39999999999992,0.1142420000000004
5.599999999999909,0.1150100000000002
5.7999999999999545,0.1161050000000001
5.999999999999943,0.1194320000000002
6.199999999999932,0.1250820000000003
6.39999999999992,0.1297460000000003
6.599999999999909,0.1352660000000001
6.7999999999999545,0.141143
6.999999999999943,0.1454080000000002
7.199999999999932,0.147818
7.39999999999992,0.1510040000000003
7.599999999999909,0.1537760000000001
7.799999999999954,0.1554460000000004
7.999999999999943,0.1579520000000003
8.199999999999932,0.1594790000000001
8.39999999999992,0.1611530000000001
8.599999999999909,0.1628590000000001
8.799999999999955,0.1649100000000003
8.999999999999943,0.1656080000000002
9.199999999999932,0.1684360000000002
9.39999999999992,0.1713680000000002
9.599999999999907,0.17375
9.799999999999956,0.1764700000000001
9.999999999999943,0.1826860000000003
10.199999999999932,0.1862250000000003
10.39999999999992,0.189788
10.599999999999907,0.1934720000000003
10.799999999999956,0.1980850000000003
10.999999999999943,0.2009820000000002
11.199999999999932,0.2061420000000002
11.39999999999992,0.2109780000000003
11.599999999999907,0.2149810000000003
11.799999999999956,0.2166840000000003
11.999999999999943,0.2180630000000003
12.199999999999932,0.2201840000000001
12.39999999999992,0.221492
12.599999999999907,0.2223540000000001
12.799999999999956,0.2249890000000003
12.999999999999943,0.228002
13.199999999999932,0.230512
13.39999999999992,0.2338180000000003
13.599999999999907,0.2368130000000001
13.799999999999956,0.239665
13.999999999999943,0.242391
14.199999999999932,0.2461100000000002
14.39999999999992,0.2505610000000002
14.599999999999907,0.2576510000000001
14.799999999999956,0.2622110000000002
14.999999999999943,0.2667290000000002
15.199999999999932,0.2688260000000002
15.39999999999992,0.2703460000000004
15.599999999999907,0.2715270000000003
15.799999999999956,0.2723960000000001
15.999999999999943,0.2722460000000004
16.199999999999932,0.2738180000000003
16.39999999999992,0.277619
16.59999999999991,0.2795670000000001
16.799999999999955,0.2819360000000004
16.999999999999943,0.284812
17.199999999999932,0.2889980000000003
17.39999999999992,0.290858
17.59999999999991,0.2942790000000004
17.799999999999955,0.2967810000000002
17.999999999999943,0.299954
18.19999999999993,0.301085
18.39999999999992,0.3024730000000004
18.59999999999991,0.304154
18.799999999999955,0.3079550000000002
18.999999999999943,0.3116070000000004
19.19999999999993,0.3139100000000003
19.39999999999992,0.3163660000000003
19.59999999999991,0.3167730000000004
19.799999999999955,0.3176640000000001
19.999999999999943,0.316084
20.19999999999993,0.3152570000000003
20.39999999999992,0.3128490000000004
20.59999999999991,0.3140180000000003
20.799999999999955,0.315541
20.999999999999943,0.3205720000000003
21.19999999999993,0.3264200000000001
21.39999999999992,0.333882
21.59999999999991,0.3386850000000003
21.799999999999955,0.3416460000000003
21.999999999999943,0.342527
22.19999999999993,0.3441500000000004
22.39999999999992,0.3458220000000001
22.59999999999991,0.3476300000000001
22.799999999999955,0.3517950000000001
22.999999999999943,0.356681
23.19999999999993,0.3592890000000004
23.39999999999992,0.3607140000000002
23.59999999999991,0.3634870000000001
23.799999999999955,0.3651470000000003
23.999999999999943,0.3650440000000001
24.19999999999993,0.3657150000000002
24.39999999999992,0.3671950000000001
24.59999999999991,0.3681740000000002
24.799999999999955,0.369726
24.999999999999943,0.37358
25.19999999999993,0.3776210000000004
25.39999999999992,0.3831610000000003
25.59999999999991,0.3857640000000004
25.799999999999955,0.3870420000000001
25.999999999999943,0.389348
26.19999999999993,0.3926550000000004
26.39999999999992,0.3935400000000002
26.59999999999991,0.3939860000000004
26.799999999999955,0.3946210000000003
26.999999999999943,0.3944800000000001
27.19999999999993,0.3963300000000003
27.39999999999992,0.4006890000000003
27.59999999999991,0.4064360000000002
27.799999999999955,0.412036
27.999999999999943,0.416922
28.19999999999993,0.418854
28.39999999999992,0.4187210000000001
28.59999999999991,0.4188340000000004
28.799999999999955,0.419686
28.999999999999943,0.4197190000000002
29.19999999999993,0.4187970000000001
29.39999999999992,0.4174360000000003
29.59999999999991,0.4188980000000004
29.799999999999955,0.420312
29.999999999999943,0.4216600000000001
30.19999999999993,0.4267220000000002
30.39999999999992,0.4327470000000004
30.59999999999991,0.435759
30.799999999999955,0.4386160000000001
30.999999999999943,0.4409370000000003
31.19999999999993,0.4407130000000001
31.39999999999992,0.4407290000000001
31.59999999999991,0.4415150000000003
31.799999999999955,0.4430960000000001
31.999999999999943,0.4461430000000002
32.19999999999993,0.4478410000000004
32.39999999999992,0.4475230000000003
32.59999999999991,0.448026
32.799999999999955,0.4517390000000003
32.99999999999994,0.45438
33.19999999999993,0.4578930000000003
33.39999999999992,0.4630650000000003
33.59999999999991,0.4684030000000003
33.799999999999955,0.4690100000000003
33.99999999999994,0.4701020000000002
34.19999999999993,0.4713960000000003
34.39999999999992,0.4747000000000003
34.59999999999991,0.4760010000000001
34.799999999999955,0.4779140000000001
34.99999999999994,0.4799500000000001
35.19999999999993,0.4833470000000002
35.39999999999992,0.48489
35.59999999999991,0.4873550000000004
35.799999999999955,0.4869450000000004
35.99999999999994,0.487079
36.19999999999993,0.4877420000000003
36.39999999999992,0.4878490000000002
36.59999999999991,0.4870740000000002
36.79999999999996,0.48923
36.99999999999994,0.4929700000000001
37.19999999999993,0.49614
37.39999999999992,0.4967060000000001
37.59999999999991,0.4978180000000001
37.79999999999996,0.4992450000000001
37.99999999999994,0.4992940000000003
38.19999999999993,0.4973650000000003
38.39999999999992,0.4992320000000001
38.59999999999991,0.50285
38.79999999999996,0.5057510000000001
38.99999999999994,0.5059020000000003
39.19999999999993,0.5058660000000001
39.39999999999992,0.5054080000000001
39.59999999999991,0.50434
39.79999999999996,0.5060840000000004
39.99999999999994,0.5092060000000003
40.19999999999993,0.5126190000000004
40.39999999999992,0.5163520000000004
40.59999999999991,0.5184070000000003
40.79999999999996,0.5187290000000004
40.99999999999994,0.519514
41.19999999999993,0.5234710000000002
41.39999999999992,0.5279860000000003
41.59999999999991,0.5333180000000004
41.79999999999996,0.5357940000000001
41.99999999999994,0.5365430000000004
42.19999999999993,0.535946
42.39999999999992,0.5350320000000002
42.59999999999991,0.5362480000000001
42.79999999999996,0.5353540000000003
42.99999999999994,0.5358700000000001
43.19999999999993,0.5366870000000001
43.39999999999992,0.5369220000000001
43.59999999999991,0.534818
43.79999999999996,0.5389370000000002
43.99999999999994,0.5450460000000001
44.19999999999993,0.5492790000000003
44.39999999999992,0.5526920000000004
44.59999999999991,0.5565520000000004
44.79999999999996,0.5567350000000002
44.99999999999994,0.5548120000000001
45.19999999999993,0.5540440000000002
45.39999999999992,0.5534420000000004
45.59999999999991,0.5530500000000003
45.79999999999996,0.5557000000000003
45.99999999999994,0.560524
46.19999999999993,0.5653860000000002
46.39999999999992,0.5716860000000001
46.59999999999991,0.5760470000000004
46.79999999999996,0.5754130000000002
46.99999999999994,0.574071
47.19999999999993,0.5727090000000001
47.39999999999992,0.5700950000000002
47.59999999999991,0.5678480000000001
47.79999999999996,0.5696700000000003
47.99999999999994,0.5695800000000002
48.19999999999993,0.5692320000000004
48.39999999999992,0.5698020000000001
48.59999999999991,0.573547
48.79999999999996,0.5760930000000002
48.99999999999994,0.5802940000000003
49.19999999999993,0.5848080000000002
49.39999999999992,0.5878840000000003
49.59999999999991,0.5858130000000004
49.79999999999996,0.5844900000000002
49.99999999999994,0.5839840000000001
50.19999999999993,0.5842320000000001
50.39999999999992,0.5826340000000001
50.59999999999991,0.5841740000000004
50.79999999999996,0.5861140000000002
50.99999999999994,0.5889530000000001
51.19999999999993,0.5898260000000004
51.39999999999992,0.5919430000000001
51.59999999999991,0.5957910000000002
51.79999999999996,0.6018270000000001
51.99999999999994,0.6051660000000001
52.19999999999993,0.6068040000000003
52.39999999999992,0.6105750000000003
52.59999999999991,0.6124
52.79999999999996,0.6103230000000002
52.99999999999994,0.6089270000000004
53.19999999999993,0.6108370000000001
53.39999999999992,0.6107110000000002
53.59999999999991,0.6098290000000004
53.79999999999996,0.6105470000000004
53.99999999999994,0.6115920000000004
54.19999999999993,0.6121370000000002
54.39999999999992,0.6138130000000004
54.59999999999991,0.6180230000000004
54.79999999999996,0.6221220000000001
54.99999999999994,0.6256370000000002
55.19999999999993,0.6271960000000001
55.39999999999992,0.6279650000000001
55.59999999999991,0.6266520000000004
55.79999999999996,0.6259610000000002
55.99999999999994,0.6254490000000001
56.19999999999993,0.6259920000000001
56.39999999999992,0.6270070000000003
56.59999999999991,0.6277950000000003
56.79999999999996,0.6274990000000003
56.99999999999994,0.6258990000000004
57.19999999999993,0.6277330000000001
57.39999999999992,0.6310820000000001
57.59999999999991,0.634344
57.79999999999996,0.6369470000000002
57.99999999999994,0.6426040000000004
58.19999999999993,0.646414
58.39999999999992,0.6504110000000001
58.59999999999991,0.652552
58.79999999999996,0.656193
58.99999999999994,0.6574940000000002
59.19999999999993,0.6576010000000001
59.39999999999992,0.6542120000000002
59.59999999999991,0.6529280000000002
59.79999999999996,0.6518620000000004
59.99999999999994,0.651583
60.19999999999993,0.6510940000000001
60.39999999999992,0.6536630000000003
60.59999999999991,0.6562830000000002
60.79999999999996,0.6569340000000001
60.99999999999994,0.6567230000000004
61.19999999999993,0.6565640000000004
61.39999999999998,0.6533370000000001
61.59999999999991,0.6519640000000004
61.79999999999996,0.6519060000000003
61.999999999999886,0.6531730000000002
62.19999999999993,0.6549240000000003
62.39999999999998,0.6597330000000001
62.59999999999991,0.6637370000000002
62.79999999999996,0.6674650000000004
62.999999999999886,0.669613
63.19999999999993,0.6717240000000002
63.39999999999998,0.6735250000000002
63.59999999999991,0.6762770000000002
63.79999999999996,0.681073
63.999999999999886,0.685343
64.19999999999993,0.6859040000000003
64.39999999999998,0.6864850000000002
64.59999999999991,0.6842060000000001
64.79999999999995,0.6794880000000001
64.99999999999989,0.6763700000000004
65.19999999999993,0.6774780000000002
65.39999999999998,0.6785990000000002
65.59999999999991,0.6821540000000001
65.79999999999995,0.6858060000000004
65.99999999999989,0.6883490000000001
66.19999999999993,0.6892990000000001
66.39999999999998,0.6890010000000002
66.59999999999991,0.6903270000000004
66.79999999999995,0.693362
66.99999999999989,0.6969320000000003
67.19999999999993,0.6990640000000004
67.39999999999998,0.701076
67.59999999999991,0.7003560000000002
67.79999999999995,0.6999310000000003
67.99999999999989,0.6983910000000004
68.19999999999993,0.7011380000000003
68.39999999999998,0.706315
68.59999999999991,0.7120810000000004
68.79999999999995,0.7136630000000004
68.99999999999989,0.7174050000000003
69.19999999999993,0.7170970000000003
69.39999999999998,0.7148640000000004
69.59999999999991,0.7128110000000003
69.79999999999995,0.712364
69.99999999999989,0.711049
70.19999999999993,0.7131000000000003
70.39999999999998,0.7163780000000002
70.59999999999991,0.7196610000000003
70.79999999999995,0.723408
70.99999999999989,0.726229
71.19999999999993,0.7261250000000001
71.39999999999998,0.7257250000000002
71.59999999999991,0.7250650000000003
71.79999999999995,0.7241580000000001
71.99999999999989,0.7235560000000003
72.19999999999993,0.7261440000000001
72.39999999999998,0.7285660000000003
72.59999999999991,0.728615
72.79999999999995,0.7291160000000003
72.99999999999989,0.7300250000000004
73.19999999999993,0.7296310000000004
73.39999999999998,0.7292000000000001
73.59999999999991,0.730261
73.79999999999995,0.7319200000000001
73.99999999999989,0.7328550000000003
74.19999999999993,0.7328270000000003
74.39999999999998,0.7343590000000004
74.59999999999991,0.7360110000000004
74.79999999999995,0.7352800000000004
74.99999999999989,0.7359440000000004
75.19999999999993,0.7386330000000001
75.39999999999998,0.7391610000000002
75.59999999999991,0.7385170000000003
75.79999999999995,0.7405600000000003
75.99999999999989,0.7439260000000001
76.19999999999993,0.7450950000000001
76.39999999999998,0.7455560000000001
76.59999999999991,0.7457310000000001
76.79999999999995,0.7454350000000001
76.99999999999989,0.7454310000000004
77.19999999999993,0.7463930000000003
77.39999999999998,0.7467260000000002
77.59999999999991,0.7470100000000004
77.79999999999995,0.74675
77.99999999999989,0.7464350000000004
78.19999999999993,0.7460140000000002
78.39999999999998,0.7455970000000001
78.59999999999991,0.7458340000000003
78.79999999999995,0.7487880000000002
78.99999999999989,0.7494000000000001
79.19999999999993,0.7500780000000002
79.39999999999998,0.752437
79.59999999999991,0.7573790000000002
79.79999999999995,0.7607340000000002
79.99999999999989,0.764148
80.19999999999993,0.7683750000000003
80.39999999999998,0.7711020000000004
80.59999999999991,0.7721930000000001
80.79999999999995,0.7720140000000004
80.99999999999989,0.7706770000000001
81.19999999999993,0.7683580000000001
81.39999999999998,0.766213
81.59999999999991,0.7665420000000003
81.79999999999995,0.769225
81.99999999999989,0.7726970000000004
82.19999999999993,0.7752180000000002
82.39999999999998,0.7783300000000004
82.59999999999991,0.779366
82.79999999999995,0.775795
82.99999999999989,0.7738120000000004
83.19999999999993,0.77258
83.39999999999998,0.774089
83.59999999999991,0.775808
83.79999999999995,0.7792520000000001
83.99999999999989,0.7823360000000004
84.19999999999993,0.785787
84.39999999999998,0.7884800000000003
84.59999999999991,0.7886890000000002
84.79999999999995,0.7892670000000002
84.99999999999989,0.7891110000000001
85.19999999999993,0.7907390000000003
85.39999999999998,0.7916370000000001
85.59999999999991,0.7930220000000001
85.79999999999995,0.7937420000000004
85.99999999999989,0.7934480000000002
86.19999999999993,0.7921020000000003
86.39999999999998,0.7903450000000003
86.59999999999991,0.7897070000000004
86.79999999999995,0.7906090000000003
86.99999999999989,0.7930220000000001
87.19999999999993,0.7960320000000003
87.39999999999998,0.7965420000000001
87.59999999999991,0.7977010000000004
87.79999999999995,0.7982640000000001
87.99999999999989,0.7971570000000003
88.19999999999993,0.795703
88.39999999999998,0.7972460000000003
88.59999999999991,0.7979320000000003
88.79999999999995,0.7978120000000004
88.99999999999989,0.8002260000000003
89.19999999999993,0.8036270000000001
89.39999999999998,0.8070510000000004
89.59999999999991,0.811045
89.79999999999995,0.8151620000000004
89.99999999999989,0.8169770000000001
90.19999999999992,0.8141910000000001
90.39999999999998,0.8125640000000001
90.59999999999992,0.8128840000000004
90.79999999999995,0.8138510000000001
90.99999999999989,0.8166170000000004
91.19999999999992,0.8217640000000004
91.39999999999998,0.8243620000000003
91.59999999999992,0.8244370000000001
91.79999999999995,0.823763
91.99999999999989,0.8240050000000001
92.19999999999992,0.8243010000000002
92.39999999999998,0.823353
92.59999999999992,0.8224660000000004
92.79999999999995,0.8242280000000002
92.99999999999989,0.823585
93.19999999999992,0.8235870000000003
93.39999999999998,0.8252400000000004
93.59999999999992,0.8278830000000004
93.79999999999995,0.8267180000000001
93.99999999999989,0.8267320000000002
94.19999999999992,0.8260910000000004
94.39999999999998,0.8267790000000002
94.59999999999992,0.8269260000000003
94.79999999999995,0.8304260000000001
94.99999999999989,0.8334020000000004
95.19999999999992,0.8357530000000004
95.39999999999998,0.836789
95.59999999999992,0.8389260000000003
95.79999999999995,0.8390870000000001
95.99999999999989,0.8391510000000002
96.19999999999992,0.8427130000000003
96.39999999999998,0.845253
96.59999999999992,0.8458040000000002
96.79999999999995,0.8459770000000004
96.99999999999989,0.847013
97.19999999999992,0.8466050000000003
97.39999999999998,0.8491140000000001
97.59999999999992,0.8522630000000002
97.79999999999995,0.8554760000000003
97.99999999999989,0.8550080000000002
98.19999999999992,0.8524290000000003
98.39999999999998,0.8502770000000002
98.59999999999992,0.8500170000000002
98.79999999999995,0.8506980000000004
98.99999999999989,0.8536110000000003
99.19999999999992,0.8575820000000003
99.39999999999998,0.8587560000000001
99.59999999999992,0.860071
99.79999999999995,0.8624520000000002
99.99999999999989,0.8669010000000004
100.19999999999992,0.8705880000000001
100.39999999999998,0.8735480000000004
100.59999999999992,0.8728030000000002
100.79999999999995,0.8697180000000002
100.99999999999989,0.8667050000000001
101.19999999999992,0.8633770000000003
101.39999999999998,0.8597960000000002
101.59999999999992,0.8590070000000001
101.79999999999995,0.8603900000000002
101.99999999999989,0.8609520000000002
102.19999999999992,0.8623720000000001
102.39999999999998,0.8666620000000003
102.59999999999992,0.8700460000000003
102.79999999999995,0.8719430000000004
102.99999999999989,0.8729690000000003
103.19999999999992,0.8726050000000001
103.39999999999998,0.8708210000000003
103.59999999999992,0.871143
103.79999999999995,0.8726530000000001
103.99999999999989,0.8761710000000003
104.19999999999992,0.8803230000000002
104.39999999999998,0.8834970000000002
104.59999999999992,0.8836340000000003
104.79999999999995,0.8836720000000002
104.99999999999989,0.8815820000000003
105.19999999999992,0.8788850000000004
105.39999999999998,0.8762930000000004
105.59999999999992,0.877437
105.79999999999995,0.8795480000000002
105.99999999999989,0.8801850000000004
106.19999999999992,0.8818160000000002
106.39999999999998,0.8842830000000004
106.59999999999992,0.8855720000000002
106.79999999999995,0.8878050000000002
106.99999999999989,0.8923010000000002
107.19999999999992,0.8957440000000001
107.39999999999998,0.8977580000000001
107.59999999999992,0.8985650000000001
107.79999999999995,0.8957620000000004
107.99999999999989,0.8930510000000003
108.19999999999992,0.8910330000000002
108.39999999999998,0.8909380000000002
108.59999999999992,0.8923140000000003
108.79999999999995,0.8926440000000002
108.99999999999989,0.8920700000000004
109.19999999999992,0.891947
109.39999999999998,0.8923760000000001
109.59999999999992,0.8887580000000002
109.79999999999995,0.8887990000000001
109.99999999999989,0.8894140000000004
110.19999999999992,0.8907050000000001
110.39999999999998,0.8927210000000003
110.59999999999992,0.8964610000000004
110.79999999999995,0.8990760000000004
110.99999999999989,0.9035970000000004
111.19999999999992,0.908277
111.39999999999998,0.911941
111.59999999999992,0.9147090000000002
111.79999999999995,0.9174480000000004
111.99999999999989,0.9175240000000002
112.19999999999992,0.916119
