Time (s),Shift (nm)
0.0,0.0
0.1999999999999886,0.0085589999999999
0.3999999999999772,0.014604
0.5999999999999659,0.027584
0.8000000000000114,0.0394719999999999
1.0,0.0472129999999999
1.1999999999999886,0.054769
1.3999999999999773,0.0634920000000001
1.6000000000000227,0.072432
1.8000000000000114,0.08362
2.0,0.0944249999999999
2.1999999999999886,0.103377
2.3999999999999773,0.108173
2.6000000000000227,0.1107249999999999
2.800000000000012,0.1118539999999999
3.0,0.11338
3.1999999999999886,0.118398
3.3999999999999773,0.1262429999999998
3.6000000000000227,0.135529
3.8000000000000114,0.145416
4.0,0.154652
4.199999999999989,0.1602449999999999
4.399999999999977,0.1631439999999999
4.600000000000023,0.1653709999999999
4.800000000000011,0.168198
5.0,0.172986
5.199999999999989,0.1791659999999999
5.399999999999977,0.185804
5.600000000000023,0.1928509999999998
5.800000000000011,0.199319
6.0,0.2037559999999998
6.199999999999989,0.2077330000000001
6.399999999999977,0.2125439999999998
6.600000000000023,0.2164449999999997
6.800000000000011,0.2192340000000001
7.0,0.2215009999999999
7.199999999999989,0.223713
7.399999999999977,0.2257519999999999
7.600000000000023,0.228787
7.800000000000011,0.2334269999999998
8.0,0.2388849999999998
8.199999999999989,0.2437469999999999
8.399999999999977,0.2477830000000001
8.600000000000023,0.2509169999999998
8.800000000000011,0.252955
9.0,0.2564009999999999
9.199999999999989,0.261028
9.399999999999975,0.26702
9.600000000000025,0.273968
9.800000000000011,0.2792499999999998
10.0,0.2821289999999998
10.199999999999989,0.2847349999999999
10.399999999999975,0.287414
10.600000000000025,0.2886649999999999
10.800000000000011,0.2913749999999999
11.0,0.294737
11.199999999999989,0.298041
11.399999999999975,0.3000579999999999
11.600000000000025,0.3022239999999998
11.800000000000011,0.304408
12.0,0.305952
12.199999999999989,0.3064610000000001
12.399999999999975,0.3080449999999999
12.600000000000025,0.3099690000000001
12.800000000000011,0.312157
13.0,0.3156279999999998
13.199999999999989,0.320878
13.399999999999975,0.3250060000000001
13.600000000000025,0.3303569999999998
13.800000000000011,0.3353489999999999
14.0,0.3411789999999999
14.199999999999989,0.3471229999999998
14.399999999999975,0.351394
14.600000000000025,0.3522820000000002
14.800000000000011,0.3516219999999999
15.0,0.3497129999999999
15.199999999999989,0.3475540000000001
15.399999999999975,0.3479359999999998
15.600000000000025,0.3513619999999999
15.800000000000011,0.355941
16.0,0.3610329999999999
16.19999999999999,0.3640590000000001
16.399999999999977,0.3656220000000001
16.600000000000023,0.3664070000000001
16.80000000000001,0.3673440000000001
17.0,0.3688500000000001
17.19999999999999,0.3721860000000001
17.399999999999977,0.376436
17.600000000000023,0.3827009999999999
17.80000000000001,0.3869709999999999
18.0,0.3877139999999999
18.19999999999999,0.3881719999999999
18.399999999999977,0.389847
18.600000000000023,0.3904909999999999
18.80000000000001,0.3922089999999998
19.0,0.3960819999999998
19.19999999999999,0.4006850000000002
19.399999999999977,0.4041999999999999
19.600000000000023,0.4065609999999999
19.80000000000001,0.407769
20.0,0.408592
20.19999999999999,0.4086180000000001
20.399999999999977,0.4092229999999999
20.600000000000023,0.410682
20.80000000000001,0.4155090000000001
21.0,0.4214699999999998
21.19999999999999,0.4263059999999998
21.399999999999977,0.429383
21.600000000000023,0.4300090000000001
21.80000000000001,0.429824
22.0,0.4302250000000001
22.19999999999999,0.4318970000000002
22.399999999999977,0.4335339999999998
22.600000000000023,0.4360490000000001
22.80000000000001,0.4371239999999998
23.0,0.4377360000000001
23.19999999999999,0.437583
23.399999999999977,0.4380459999999999
23.600000000000023,0.4399519999999999
23.80000000000001,0.4427799999999999
24.0,0.4462169999999998
24.19999999999999,0.450838
24.399999999999977,0.4550869999999998
24.600000000000023,0.4582299999999999
24.80000000000001,0.46076
25.0,0.4624139999999999
25.19999999999999,0.4636309999999999
25.399999999999977,0.4653070000000001
25.600000000000023,0.4669620000000001
25.80000000000001,0.4683679999999999
26.0,0.4709989999999999
26.19999999999999,0.4728129999999999
26.399999999999977,0.4735019999999998
26.600000000000023,0.4743759999999999
26.80000000000001,0.4774919999999998
27.0,0.4796469999999999
27.19999999999999,0.482313
27.399999999999977,0.4844949999999999
27.600000000000023,0.486046
27.80000000000001,0.4863749999999998
28.0,0.485986
28.19999999999999,0.486383
28.399999999999977,0.4889640000000002
28.600000000000023,0.4920149999999998
28.80000000000001,0.4951110000000001
29.0,0.4985620000000001
29.19999999999999,0.5003250000000001
29.399999999999977,0.5018050000000001
29.600000000000023,0.502364
29.80000000000001,0.5022280000000001
30.0,0.5027469999999998
30.19999999999999,0.5041319999999998
30.399999999999977,0.5057809999999998
30.600000000000023,0.5076399999999999
30.80000000000001,0.5097809999999998
31.0,0.5098799999999999
31.19999999999999,0.5088020000000002
31.399999999999977,0.5077240000000001
31.600000000000023,0.5091619999999999
31.80000000000001,0.511568
32.0,0.5146069999999998
32.19999999999999,0.5178250000000002
32.39999999999998,0.5199639999999999
32.60000000000002,0.519838
32.80000000000001,0.518014
33.0,0.5176289999999999
33.19999999999999,0.5185629999999999
33.39999999999998,0.521379
33.60000000000002,0.5236519999999998
33.80000000000001,0.526799
34.0,0.5279699999999998
34.19999999999999,0.5279609999999999
34.39999999999998,0.5266899999999999
34.60000000000002,0.5271349999999999
34.80000000000001,0.5291950000000001
35.0,0.5319639999999999
35.19999999999999,0.5331950000000001
35.39999999999998,0.5335920000000001
35.60000000000002,0.5345149999999999
35.80000000000001,0.5365769999999999
36.0,0.5390830000000002
36.19999999999999,0.5427040000000001
36.39999999999998,0.5464790000000002
36.60000000000002,0.550173
36.80000000000001,0.5513940000000002
37.0,0.5524230000000001
37.19999999999999,0.553455
37.39999999999998,0.5553560000000002
37.60000000000002,0.5560860000000001
37.80000000000001,0.556381
38.0,0.555761
38.19999999999999,0.5570029999999999
38.39999999999998,0.556873
38.60000000000002,0.5563319999999998
38.80000000000001,0.5570339999999998
39.0,0.5602499999999999
39.19999999999999,0.5626280000000001
39.39999999999998,0.565601
39.60000000000002,0.5684939999999998
39.80000000000001,0.5712419999999998
40.0,0.5720429999999999
40.19999999999999,0.57077
40.39999999999998,0.5694599999999999
40.60000000000002,0.5709740000000001
40.80000000000001,0.5707800000000001
41.0,0.5703320000000001
41.19999999999999,0.5725639999999999
41.39999999999998,0.5765379999999998
41.60000000000002,0.577493
41.80000000000001,0.578119
42.0,0.579221
42.19999999999999,0.580209
42.39999999999998,0.5789430000000002
42.60000000000002,0.5784600000000002
42.80000000000001,0.5783139999999998
43.0,0.5786920000000002
43.19999999999999,0.576975
43.39999999999998,0.5756459999999999
43.60000000000002,0.5747969999999998
43.80000000000001,0.5764279999999999
44.0,0.5785559999999998
44.19999999999999,0.5817380000000001
44.39999999999998,0.5863659999999999
44.60000000000002,0.590204
44.80000000000001,0.5916419999999998
45.0,0.5923409999999998
45.19999999999999,0.5930339999999998
45.39999999999998,0.592965
45.60000000000002,0.594115
45.80000000000001,0.596133
46.0,0.5998679999999998
46.19999999999999,0.602814
46.39999999999998,0.6043959999999999
46.60000000000002,0.6046420000000001
46.80000000000001,0.6045449999999999
47.0,0.6014369999999998
47.19999999999999,0.5998039999999998
47.39999999999998,0.600177
47.60000000000002,0.6015760000000001
47.80000000000001,0.6038269999999999
48.0,0.6065909999999999
48.19999999999999,0.6107010000000002
48.39999999999998,0.6131579999999999
48.60000000000002,0.615958
48.80000000000001,0.6168939999999998
49.0,0.6182319999999999
49.19999999999999,0.6165560000000001
49.39999999999998,0.6166100000000001
49.60000000000002,0.6182949999999998
49.80000000000001,0.621445
50.0,0.623399
50.19999999999999,0.625327
50.39999999999998,0.6259139999999999
50.60000000000002,0.6225260000000001
50.80000000000001,0.618922
51.0,0.6165530000000001
51.19999999999999,0.6166870000000002
51.39999999999998,0.6176560000000002
51.60000000000002,0.6210469999999999
51.80000000000001,0.6250110000000002
52.0,0.6278510000000002
52.19999999999999,0.6300270000000001
52.39999999999998,0.630563
52.60000000000002,0.6307109999999998
52.80000000000001,0.6304449999999999
53.0,0.6315149999999998
53.19999999999999,0.631631
53.39999999999998,0.6330279999999999
53.60000000000002,0.6331570000000002
53.80000000000001,0.633111
54.0,0.6334900000000001
54.19999999999999,0.6350039999999999
54.39999999999998,0.635662
54.60000000000002,0.636584
54.80000000000001,0.6376759999999999
55.0,0.637238
55.19999999999999,0.6376439999999999
55.39999999999998,0.6358630000000001
55.60000000000002,0.6360969999999999
55.80000000000001,0.6362640000000002
56.0,0.637766
56.19999999999999,0.6380669999999999
56.39999999999998,0.641346
56.60000000000002,0.6433879999999998
56.80000000000001,0.645159
57.0,0.647376
57.19999999999999,0.6491660000000001
57.39999999999998,0.6501130000000002
57.60000000000002,0.6505510000000001
57.80000000000001,0.6500569999999999
58.0,0.6488779999999998
58.19999999999999,0.6470899999999999
58.39999999999998,0.6446390000000002
58.60000000000002,0.642061
58.80000000000001,0.641359
59.0,0.64127
59.19999999999999,0.6422050000000001
59.39999999999998,0.645483
59.60000000000002,0.6487889999999998
59.80000000000001,0.6519499999999998
60.0,0.6537470000000001
60.19999999999999,0.655103
60.39999999999998,0.656466
60.60000000000002,0.66018
60.80000000000001,0.6627010000000002
61.0,0.6643089999999998
61.200000000000045,0.664962
61.39999999999998,0.6651280000000002
61.60000000000002,0.6643150000000002
61.79999999999996,0.6625239999999999
62.0,0.6624810000000001
62.200000000000045,0.6644299999999999
62.39999999999998,0.667481
62.60000000000002,0.6694230000000001
62.79999999999996,0.6725500000000002
63.0,0.6739679999999999
63.200000000000045,0.6750929999999999
63.39999999999998,0.6740349999999999
63.60000000000002,0.6730909999999999
63.79999999999996,0.6707190000000001
64.0,0.6706259999999999
64.20000000000005,0.670757
64.39999999999998,0.6721249999999999
64.60000000000002,0.673263
64.79999999999995,0.6750539999999998
65.0,0.6762670000000002
65.20000000000005,0.6778040000000001
65.39999999999998,0.6778580000000001
65.60000000000002,0.6783419999999998
65.79999999999995,0.6807539999999999
66.0,0.6828069999999999
66.20000000000005,0.6828289999999999
66.39999999999998,0.6827169999999998
66.60000000000002,0.6828799999999999
66.79999999999995,0.683103
67.0,0.6838510000000002
67.20000000000005,0.6850399999999999
67.39999999999998,0.6877249999999999
67.60000000000002,0.6888510000000001
67.79999999999995,0.6880950000000001
68.0,0.6877770000000001
68.20000000000005,0.6890369999999999
68.39999999999998,0.6883089999999998
68.60000000000002,0.6887210000000001
68.79999999999995,0.6893549999999999
69.0,0.689622
69.20000000000005,0.688158
69.39999999999998,0.688212
69.60000000000002,0.688418
69.79999999999995,0.6886549999999998
70.0,0.688075
70.20000000000005,0.688701
70.39999999999998,0.6886519999999998
70.60000000000002,0.6888350000000001
70.79999999999995,0.6895530000000001
71.0,0.6915429999999998
71.20000000000005,0.6944689999999998
71.39999999999998,0.698372
71.60000000000002,0.7005050000000002
71.79999999999995,0.7033960000000001
72.0,0.7051919999999998
72.20000000000005,0.7054860000000001
72.39999999999998,0.7035119999999999
72.60000000000002,0.7030159999999999
72.79999999999995,0.701022
73.0,0.700558
73.20000000000005,0.700313
73.39999999999998,0.7008350000000001
73.60000000000002,0.6996340000000001
73.79999999999995,0.700866
74.0,0.7009099999999999
74.20000000000005,0.701368
74.39999999999998,0.7017509999999998
74.60000000000002,0.7040790000000001
74.79999999999995,0.7046190000000001
75.0,0.706785
75.20000000000005,0.7082250000000001
75.39999999999998,0.7095579999999999
75.60000000000002,0.7114980000000002
75.79999999999995,0.7114600000000002
76.0,0.707589
76.20000000000005,0.705676
76.39999999999998,0.7067160000000001
76.60000000000002,0.7076359999999999
76.79999999999995,0.7097669999999998
77.0,0.714709
77.20000000000005,0.7177760000000002
77.39999999999998,0.7190159999999999
77.60000000000002,0.7176870000000002
77.79999999999995,0.7174109999999998
78.0,0.7169850000000002
78.20000000000005,0.7181540000000002
78.39999999999998,0.7198449999999998
78.60000000000002,0.7226330000000001
78.79999999999995,0.724955
79.0,0.725695
79.20000000000005,0.723417
79.39999999999998,0.7208800000000002
79.60000000000002,0.71787
79.79999999999995,0.7164220000000001
80.0,0.7166619999999999
80.20000000000005,0.7177509999999998
80.39999999999998,0.7192500000000002
80.60000000000002,0.72112
80.79999999999995,0.7218990000000001
81.0,0.7232850000000002
81.20000000000005,0.72763
81.39999999999998,0.729549
81.60000000000002,0.7315830000000001
81.79999999999995,0.7335219999999998
82.0,0.7328419999999998
82.20000000000005,0.7295069999999999
82.39999999999998,0.7280009999999999
82.60000000000002,0.7264200000000001
82.79999999999995,0.7243539999999999
83.0,0.7240380000000002
83.20000000000005,0.7250009999999998
83.39999999999998,0.7271019999999999
83.60000000000002,0.7289780000000001
83.79999999999995,0.7303329999999999
84.0,0.7318150000000001
84.20000000000005,0.7327750000000002
84.39999999999998,0.7321520000000001
84.60000000000002,0.7330209999999999
84.79999999999995,0.734639
85.0,0.7360720000000001
85.20000000000005,0.735827
85.39999999999998,0.7359589999999998
85.60000000000002,0.7362060000000001
85.79999999999995,0.735846
86.0,0.735106
86.20000000000005,0.7366799999999998
86.39999999999998,0.7384119999999998
86.60000000000002,0.7384930000000001
86.79999999999995,0.740675
87.0,0.742057
87.20000000000005,0.7400850000000001
87.39999999999998,0.7386020000000002
87.60000000000002,0.7388319999999999
87.79999999999995,0.7376109999999998
88.0,0.736748
88.20000000000005,0.7387709999999998
88.39999999999998,0.7400869999999999
88.60000000000002,0.74092
88.79999999999995,0.74213
89.0,0.7448570000000001
89.20000000000005,0.7480410000000002
89.39999999999998,0.7509969999999999
89.60000000000002,0.7515969999999998
89.79999999999995,0.751938
90.0,0.7514880000000002
90.20000000000005,0.7503700000000002
90.39999999999998,0.7501709999999999
90.60000000000002,0.7501289999999998
90.79999999999995,0.7501720000000001
91.0,0.7506390000000001
91.20000000000005,0.7510590000000001
91.39999999999998,0.7506659999999998
91.60000000000002,0.7527919999999999
91.79999999999995,0.7547410000000001
92.0,0.7552249999999998
92.20000000000005,0.7548370000000002
92.39999999999998,0.7550279999999998
92.60000000000002,0.7541950000000002
92.79999999999995,0.7545670000000002
93.0,0.755109
93.20000000000005,0.7562820000000001
93.39999999999998,0.7564199999999999
93.60000000000002,0.7576269999999998
93.79999999999995,0.758753
94.0,0.760548
94.20000000000005,0.7605399999999998
94.39999999999998,0.760113
94.60000000000002,0.75834
94.79999999999995,0.7553890000000001
95.0,0.7517589999999998
95.20000000000005,0.7505510000000002
95.39999999999998,0.7522159999999998
95.60000000000002,0.755566
95.79999999999995,0.757949
96.0,0.762267
96.20000000000005,0.7642880000000001
96.39999999999998,0.7661530000000001
96.60000000000002,0.7665769999999998
96.79999999999995,0.7699959999999999
97.0,0.7717740000000002
97.20000000000005,0.774181
97.39999999999998,0.7743220000000002
97.60000000000002,0.7737940000000001
97.79999999999995,0.7710699999999999
98.0,0.7695729999999998
98.20000000000005,0.7688229999999998
98.39999999999998,0.7681170000000002
98.60000000000002,0.769037
98.79999999999995,0.770721
99.0,0.7712729999999999
99.20000000000005,0.7712279999999998
99.39999999999998,0.7721650000000002
99.60000000000002,0.7719209999999999
99.79999999999995,0.7709830000000002
100.0,0.7689460000000001
100.20000000000005,0.769409
100.39999999999998,0.769558
100.60000000000002,0.7698040000000002
100.79999999999995,0.7685230000000001
101.0,0.7688329999999999
101.20000000000005,0.7674099999999999
101.39999999999998,0.7670319999999999
101.60000000000002,0.767595
101.79999999999995,0.7694939999999999
102.0,0.7713109999999999
102.20000000000005,0.7721650000000002
102.39999999999998,0.7737569999999998
102.60000000000002,0.773863
102.79999999999995,0.7745280000000001
103.0,0.77563
103.20000000000005,0.777628
103.39999999999998,0.7772800000000002
103.60000000000002,0.779188
103.79999999999995,0.780243
104.0,0.780329
104.20000000000005,0.7803710000000001
104.39999999999998,0.7803369999999998
104.60000000000002,0.779004
104.79999999999995,0.7794629999999998
105.0,0.78125
105.20000000000005,0.7820740000000002
105.39999999999998,0.783995
105.60000000000002,0.7851919999999999
105.79999999999995,0.7839640000000001
106.0,0.7816359999999998
106.20000000000005,0.779738
106.39999999999998,0.7789459999999999
106.60000000000002,0.77976
106.79999999999995,0.7823289999999998
107.0,0.784951
107.20000000000005,0.7866719999999998
107.39999999999998,0.7870279999999998
107.60000000000002,0.7868529999999998
107.79999999999995,0.7871540000000001
108.0,0.7868210000000002
108.20000000000005,0.7882850000000001
108.39999999999998,0.7895650000000001
108.60000000000002,0.792246
108.79999999999995,0.7945850000000001
109.0,0.7978239999999999
109.20000000000005,0.799331
109.39999999999998,0.800128
109.60000000000002,0.7995239999999999
109.79999999999995,0.798702
110.0,0.796643
110.20000000000005,0.794867
110.39999999999998,0.7929710000000001
110.60000000000002,0.7928009999999999
110.79999999999995,0.7934640000000002
111.0,0.7938260000000001
111.20000000000005,0.7937439999999998
111.39999999999998,0.794864
111.60000000000002,0.794794
111.79999999999995,0.7950910000000002
112.0,0.796583
112.20000000000005,0.7990110000000001
112.39999999999998,0.8007270000000002
112.60000000000002,0.801196
112.79999999999995,0.8014380000000001
113.0,0.7999209999999999
113.20000000000005,0.7997450000000002
113.39999999999998,0.7992360000000001
113.60000000000002,0.7984100000000001
113.79999999999995,0.795741
114.0,0.7978450000000001
114.20000000000005,0.7992710000000001
114.39999999999998,0.7996310000000002
114.60000000000002,0.7994859999999999
114.79999999999995,0.8013400000000002
115.0,0.8011089999999998
115.20000000000005,0.8014070000000002
115.39999999999998,0.803499
115.60000000000002,0.806508
115.79999999999995,0.807137
116.0,0.8054410000000001
116.20000000000005,0.8029229999999998
116.39999999999998,0.8017159999999999
116.60000000000002,0.802778
116.79999999999995,0.8047819999999999
117.0,0.8078609999999999
117.20000000000005,0.8101259999999999
117.39999999999998,0.8108840000000002
117.60000000000002,0.809018
117.79999999999995,0.8072889999999999
118.0,0.807645
118.20000000000005,0.809005
118.39999999999998,0.8087140000000002
118.60000000000002,0.8071959999999998
118.79999999999995,0.8051900000000001
119.0,0.8013819999999998
119.20000000000005,0.7986330000000001
119.39999999999998,0.8008959999999998
119.60000000000002,0.8045230000000001
119.79999999999995,0.8098450000000001
120.0,0.8156110000000001
120.20000000000005,0.8199450000000001
120.39999999999998,0.818365
120.60000000000002,0.8169140000000001
120.79999999999995,0.814019
121.0,0.8125900000000001
121.20000000000005,0.8127979999999999
121.39999999999998,0.815299
121.60000000000002,0.8181959999999999
121.79999999999995,0.821018
122.0,0.8204989999999999
122.20000000000005,0.8183560000000001
122.39999999999998,0.8168890000000002
122.60000000000002,0.8167689999999999
122.79999999999995,0.8169439999999999
123.0,0.8173379999999999
123.20000000000005,0.817666
123.39999999999998,0.819372
123.60000000000002,0.8212350000000002
123.79999999999995,0.8214169999999998
124.0,0.821809
124.20000000000005,0.8213560000000002
124.39999999999998,0.8196940000000001
124.60000000000002,0.8191649999999999
124.79999999999995,0.819731
125.0,0.8210229999999998
125.20000000000005,0.8224459999999998
125.39999999999998,0.8240249999999998
