Time (s),Shift (nm)
0.0,0.0
0.1999999999999886,0.0054829999999999
0.4000000000000341,0.0080329999999999
0.6000000000000227,0.0099929999999999
0.8000000000000114,0.0126919999999999
1.0,0.017349
1.2000000000000457,0.021843
1.400000000000034,0.0288060000000001
1.6000000000000227,0.0348759999999999
1.8000000000000114,0.0396590000000001
2.0,0.04336
2.200000000000045,0.046666
2.400000000000034,0.049438
2.6000000000000227,0.0531669999999999
2.800000000000012,0.0577909999999999
3.0,0.0636529999999999
3.200000000000045,0.0720989999999999
3.400000000000034,0.0780449999999999
3.6000000000000227,0.08372
3.8000000000000114,0.088551
4.0,0.0944359999999999
4.2000000000000455,0.09741
4.400000000000034,0.102092
4.600000000000023,0.1079149999999999
4.800000000000011,0.1148489999999999
5.0,0.1214090000000001
5.2000000000000455,0.130552
5.400000000000034,0.136133
5.600000000000023,0.140565
5.800000000000011,0.143499
6.0,0.147086
6.2000000000000455,0.148212
6.400000000000034,0.1533919999999999
6.600000000000023,0.1579109999999999
6.800000000000011,0.162719
7.0,0.1666119999999999
7.2000000000000455,0.172781
7.400000000000034,0.1778539999999999
7.600000000000023,0.18378
7.800000000000011,0.1908019999999999
8.0,0.197864
8.200000000000045,0.203486
8.400000000000034,0.2080779999999999
8.600000000000023,0.2131579999999999
8.800000000000011,0.217281
9.0,0.220277
9.200000000000044,0.2224950000000001
9.400000000000034,0.2258610000000001
9.600000000000025,0.2291419999999999
9.800000000000011,0.232458
10.0,0.238582
10.200000000000044,0.246888
10.400000000000034,0.255255
10.600000000000025,0.2611429999999999
10.800000000000011,0.265479
11.0,0.2695719999999999
11.200000000000044,0.27482
11.400000000000034,0.278839
11.600000000000025,0.2828079999999999
11.800000000000011,0.2884789999999999
12.0,0.2945770000000001
12.200000000000044,0.2996959999999999
12.400000000000034,0.3051360000000001
12.600000000000025,0.31227
12.800000000000011,0.318224
13.0,0.3210299999999999
13.200000000000044,0.322465
13.400000000000034,0.3253790000000001
13.600000000000025,0.3295349999999999
13.800000000000011,0.3347040000000001
14.0,0.3402929999999999
14.200000000000044,0.3465499999999999
14.400000000000034,0.3523469999999999
14.600000000000025,0.3570249999999999
14.800000000000011,0.3619239999999999
15.0,0.3685689999999999
15.200000000000044,0.373928
15.400000000000034,0.3775429999999999
15.600000000000025,0.3802589999999999
15.800000000000011,0.3820429999999999
16.0,0.3838790000000001
16.200000000000045,0.3873599999999999
16.400000000000034,0.3941039999999998
16.600000000000023,0.4018409999999999
16.80000000000001,0.410004
17.0,0.4158700000000002
17.200000000000045,0.4204809999999999
17.400000000000034,0.4228289999999999
17.600000000000023,0.4235439999999999
17.80000000000001,0.426309
18.0,0.4311939999999998
18.200000000000045,0.438264
18.400000000000038,0.4437629999999999
18.600000000000023,0.4492420000000001
18.80000000000001,0.4543039999999998
19.0,0.4601240000000002
19.200000000000045,0.4636120000000001
19.400000000000038,0.4673299999999998
19.600000000000023,0.4726350000000001
19.80000000000001,0.4774140000000002
20.0,0.480199
20.200000000000045,0.4823090000000001
20.400000000000038,0.4856459999999998
20.600000000000023,0.4882299999999999
20.80000000000001,0.492691
21.0,0.4978290000000001
21.200000000000045,0.504129
21.400000000000038,0.510067
21.600000000000023,0.517158
21.80000000000001,0.520176
22.0,0.5243049999999998
22.200000000000045,0.5273519999999998
22.400000000000038,0.5319260000000001
22.600000000000023,0.5369590000000002
22.80000000000001,0.5439879999999999
23.0,0.548967
23.200000000000045,0.554114
23.400000000000038,0.559544
23.600000000000023,0.5626439999999999
23.80000000000001,0.5658429999999999
24.0,0.5696869999999998
24.200000000000045,0.5756940000000002
24.400000000000038,0.5793890000000002
24.600000000000023,0.5847629999999999
24.80000000000001,0.5902900000000002
25.0,0.5965610000000001
25.200000000000045,0.6002470000000002
25.400000000000038,0.604166
25.600000000000023,0.6091849999999999
25.80000000000001,0.613075
26.0,0.6174989999999998
26.200000000000045,0.6225910000000001
26.400000000000038,0.6284970000000001
26.600000000000023,0.6320970000000001
26.80000000000001,0.6339560000000002
27.0,0.6345250000000002
27.200000000000045,0.636592
27.400000000000038,0.6394569999999999
27.600000000000023,0.642326
27.80000000000001,0.64802
28.0,0.652738
28.200000000000045,0.657205
28.400000000000038,0.6610940000000001
28.600000000000023,0.6656190000000002
28.80000000000001,0.6702839999999999
29.0,0.6759419999999998
29.200000000000045,0.6824670000000002
29.400000000000038,0.6880360000000001
29.600000000000023,0.6935909999999998
29.80000000000001,0.6979200000000001
30.0,0.7024269999999999
30.200000000000045,0.7070299999999998
30.400000000000038,0.7123060000000001
30.600000000000023,0.7175529999999999
30.80000000000001,0.7215999999999998
31.0,0.7257360000000002
31.200000000000045,0.727927
31.400000000000038,0.7296050000000001
31.600000000000023,0.7304100000000002
31.80000000000001,0.7324309999999998
32.0,0.7356320000000001
32.200000000000045,0.7396149999999999
32.400000000000034,0.7458400000000001
32.60000000000002,0.7518179999999999
32.80000000000001,0.7575580000000002
33.0,0.7602170000000001
33.200000000000045,0.7629270000000001
33.400000000000034,0.7632109999999999
33.60000000000002,0.765852
33.80000000000001,0.7705879999999998
34.0,0.7777589999999999
34.200000000000045,0.7839410000000002
34.400000000000034,0.7912229999999998
34.60000000000002,0.796492
34.80000000000001,0.80176
35.0,0.8053100000000002
35.200000000000045,0.8087150000000001
35.400000000000034,0.8106760000000002
35.60000000000002,0.8139299999999998
35.80000000000001,0.8165199999999999
36.0,0.8195560000000002
36.200000000000045,0.8225420000000001
36.400000000000034,0.828092
36.60000000000002,0.8319720000000002
36.80000000000001,0.8355750000000002
37.0,0.8399310000000002
37.200000000000045,0.8460080000000001
37.400000000000034,0.8494550000000001
37.60000000000002,0.854595
37.80000000000001,0.8591219999999999
38.0,0.863399
38.200000000000045,0.8655540000000002
38.400000000000034,0.868892
38.60000000000002,0.8723280000000002
38.80000000000001,0.8751960000000001
39.0,0.8790829999999998
39.200000000000045,0.883748
39.400000000000034,0.889343
39.60000000000002,0.8935760000000001
39.80000000000001,0.8990950000000002
40.0,0.9017160000000002
40.200000000000045,0.905727
40.400000000000034,0.909702
40.60000000000002,0.9156099999999998
40.80000000000001,0.919574
41.0,0.923961
41.200000000000045,0.927067
41.400000000000034,0.929759
41.60000000000002,0.9311429999999998
41.80000000000001,0.934445
42.0,0.9387200000000002
42.200000000000045,0.943684
42.400000000000034,0.9476190000000002
42.60000000000002,0.9515300000000002
42.80000000000001,0.9539959999999998
43.0,0.9565089999999998
43.200000000000045,0.959471
43.400000000000034,0.9624469999999998
43.60000000000002,0.966245
43.80000000000001,0.9688830000000002
44.0,0.9724069999999998
44.200000000000045,0.9757969999999998
44.400000000000034,0.9796159999999998
44.60000000000002,0.982772
44.80000000000001,0.9887940000000002
45.0,0.993752
45.200000000000045,0.996533
45.400000000000034,0.999084
45.60000000000002,1.0019159999999998
45.80000000000001,1.004768
46.0,1.008722
46.200000000000045,1.014305
46.400000000000034,1.019602
46.60000000000002,1.025848
46.80000000000001,1.0305099999999998
47.0,1.03483
47.200000000000045,1.036401
47.400000000000034,1.0386810000000002
47.60000000000002,1.040021
47.80000000000001,1.0412610000000002
48.0,1.04117
48.200000000000045,1.042727
48.400000000000034,1.045821
48.60000000000002,1.050203
48.80000000000001,1.0572860000000002
49.0,1.0632430000000002
49.200000000000045,1.068671
49.400000000000034,1.072093
49.60000000000002,1.074502
49.80000000000001,1.0757519999999998
50.0,1.0780070000000002
50.200000000000045,1.082467
50.400000000000034,1.087191
50.60000000000002,1.0909540000000002
50.80000000000001,1.0949160000000002
51.0,1.098209
51.200000000000045,1.101177
51.400000000000034,1.1052829999999998
51.60000000000002,1.109927
51.80000000000001,1.112245
52.0,1.114934
52.200000000000045,1.116786
52.400000000000034,1.117869
52.60000000000002,1.119552
52.80000000000001,1.124723
53.0,1.133411
53.200000000000045,1.141806
53.400000000000034,1.149674
53.60000000000002,1.154336
53.80000000000001,1.155718
54.0,1.154123
54.200000000000045,1.153083
54.400000000000034,1.154113
54.60000000000002,1.159527
54.80000000000001,1.165231
55.0,1.170222
55.200000000000045,1.175549
55.400000000000034,1.1793539999999998
55.60000000000002,1.1812729999999998
55.80000000000001,1.1838529999999998
56.0,1.187079
56.200000000000045,1.187793
56.400000000000034,1.189823
56.60000000000002,1.191527
56.80000000000001,1.193293
57.0,1.1967830000000002
57.200000000000045,1.2029630000000002
57.400000000000034,1.2075410000000002
57.60000000000002,1.2118019999999998
57.80000000000001,1.216293
58.0,1.2187530000000002
58.200000000000045,1.2215
58.400000000000034,1.223923
58.60000000000002,1.225885
58.80000000000001,1.226469
59.0,1.229131
59.200000000000045,1.231726
59.400000000000034,1.234561
59.60000000000002,1.2386
59.80000000000001,1.245051
60.0,1.2516710000000002
60.200000000000045,1.257478
60.400000000000034,1.262028
60.60000000000002,1.265375
60.80000000000001,1.266379
61.0,1.266053
61.200000000000045,1.2664920000000002
61.400000000000034,1.267732
61.60000000000002,1.270179
61.80000000000007,1.2756839999999998
62.0,1.281776
62.200000000000045,1.2866639999999998
62.39999999999998,1.291621
62.60000000000002,1.2962749999999998
62.80000000000007,1.299558
63.0,1.302609
63.200000000000045,1.305442
63.39999999999998,1.309335
63.60000000000002,1.314122
63.80000000000007,1.317528
64.0,1.319897
64.20000000000005,1.323012
64.39999999999998,1.325557
64.60000000000002,1.326993
64.80000000000007,1.328669
65.0,1.331506
65.20000000000005,1.3346790000000002
65.39999999999998,1.336717
65.60000000000002,1.3381
65.80000000000007,1.338483
66.0,1.339752
66.20000000000005,1.341004
66.39999999999998,1.343317
66.60000000000002,1.346634
66.80000000000007,1.3520450000000002
67.0,1.3557020000000002
67.20000000000005,1.357804
67.39999999999998,1.359656
67.60000000000002,1.361432
67.80000000000007,1.364777
68.0,1.3692909999999998
68.20000000000005,1.375752
68.39999999999998,1.3825710000000002
68.60000000000002,1.3880709999999998
68.80000000000007,1.39047
69.0,1.3916830000000002
69.20000000000005,1.391749
69.39999999999998,1.392088
69.60000000000002,1.3910030000000002
69.80000000000007,1.390738
70.0,1.392393
70.20000000000005,1.3948090000000002
70.39999999999998,1.398233
70.60000000000002,1.404416
70.80000000000007,1.411402
71.0,1.415669
71.20000000000005,1.419434
71.39999999999998,1.420327
71.60000000000002,1.420479
71.80000000000007,1.421085
72.0,1.422058
72.20000000000005,1.425833
72.39999999999998,1.4311
72.60000000000002,1.435855
72.80000000000007,1.438579
73.0,1.443268
73.20000000000005,1.444803
73.39999999999998,1.446646
73.60000000000002,1.4504750000000002
73.80000000000007,1.4550120000000002
74.0,1.458503
74.20000000000005,1.462195
74.39999999999998,1.467504
74.60000000000002,1.470896
74.80000000000007,1.474197
75.0,1.4756859999999998
75.20000000000005,1.4777250000000002
75.39999999999998,1.4765620000000002
75.60000000000002,1.477861
75.80000000000007,1.478731
76.0,1.483777
76.20000000000005,1.487134
76.39999999999998,1.49242
76.60000000000002,1.495111
76.80000000000007,1.4970199999999998
77.0,1.497186
77.20000000000005,1.5001140000000002
77.39999999999998,1.502252
77.60000000000002,1.505142
77.80000000000007,1.508138
78.0,1.509476
78.20000000000005,1.509705
78.39999999999998,1.510426
78.60000000000002,1.510743
78.80000000000007,1.512884
79.0,1.5165110000000002
79.20000000000005,1.5210929999999998
79.39999999999998,1.5263319999999998
79.60000000000002,1.5325490000000002
79.80000000000007,1.5372929999999998
80.0,1.540491
80.20000000000005,1.54442
80.39999999999998,1.5485620000000002
80.60000000000002,1.5512910000000002
80.80000000000007,1.5551389999999998
81.0,1.558403
81.20000000000005,1.560428
81.39999999999998,1.559776
81.60000000000002,1.559255
81.80000000000007,1.559003
82.0,1.5594469999999998
82.20000000000005,1.559176
82.39999999999998,1.560906
82.60000000000002,1.566295
82.80000000000007,1.5713009999999998
83.0,1.5775020000000002
83.20000000000005,1.581508
83.39999999999998,1.5842189999999998
83.60000000000002,1.5839679999999998
83.80000000000007,1.585752
84.0,1.586631
84.20000000000005,1.589438
84.39999999999998,1.59174
84.60000000000002,1.593354
84.80000000000007,1.592732
85.0,1.592872
85.20000000000005,1.594542
85.39999999999998,1.597981
85.60000000000002,1.6011939999999998
85.80000000000007,1.6041900000000002
86.0,1.6080279999999998
86.20000000000005,1.6107790000000002
86.39999999999998,1.6120949999999998
86.60000000000002,1.6159169999999998
86.80000000000007,1.61882
87.0,1.620751
87.20000000000005,1.6203770000000002
87.39999999999998,1.621922
87.60000000000002,1.6223280000000002
87.80000000000007,1.6242949999999998
88.0,1.627581
88.20000000000005,1.633437
88.39999999999998,1.638552
88.60000000000002,1.6416579999999998
88.80000000000007,1.6436940000000002
89.0,1.646943
89.20000000000005,1.650092
89.39999999999998,1.651577
89.60000000000002,1.654869
89.80000000000007,1.658129
90.0,1.65872
90.20000000000005,1.659254
90.39999999999998,1.6627820000000002
90.60000000000002,1.6664480000000002
90.80000000000008,1.670171
91.0,1.67369
91.20000000000005,1.67565
91.39999999999998,1.6763830000000002
91.60000000000002,1.6782640000000002
91.80000000000008,1.68178
92.0,1.685175
92.20000000000005,1.689675
92.39999999999998,1.6920270000000002
92.60000000000002,1.6928029999999998
92.80000000000008,1.693952
93.0,1.696696
93.20000000000005,1.6993760000000002
93.39999999999998,1.7007610000000002
93.60000000000002,1.702472
93.80000000000008,1.702774
94.0,1.7027660000000002
94.20000000000005,1.7031759999999998
94.39999999999998,1.7082339999999998
94.60000000000002,1.7118110000000002
94.80000000000008,1.7160909999999998
95.0,1.718997
95.20000000000005,1.7208750000000002
95.39999999999998,1.721364
95.60000000000002,1.7217779999999998
95.80000000000008,1.72409
96.0,1.727155
96.20000000000005,1.7313919999999998
96.39999999999998,1.735853
96.60000000000002,1.7414219999999998
96.80000000000008,1.7445480000000002
97.0,1.747736
97.20000000000005,1.749255
97.39999999999998,1.750005
97.60000000000002,1.749148
97.80000000000008,1.748568
98.0,1.7467720000000002
98.20000000000005,1.747254
98.39999999999998,1.74643
98.60000000000002,1.748769
98.80000000000008,1.751157
99.0,1.754331
99.20000000000005,1.7563799999999998
99.39999999999998,1.7595539999999998
99.60000000000002,1.762519
99.80000000000008,1.7662669999999998
100.0,1.772085
100.20000000000005,1.778261
100.39999999999998,1.784261
100.60000000000002,1.788134
100.80000000000008,1.7895740000000002
101.0,1.78712
101.20000000000005,1.7849389999999998
101.39999999999998,1.783752
101.60000000000002,1.783456
101.80000000000008,1.7839600000000002
102.0,1.786386
102.20000000000005,1.79002
102.39999999999998,1.7950799999999998
102.60000000000002,1.798933
102.80000000000008,1.802979
103.0,1.806772
103.20000000000005,1.809798
103.39999999999998,1.810539
103.60000000000002,1.812851
103.80000000000008,1.814559
104.0,1.816733
104.20000000000005,1.816088
104.39999999999998,1.815307
104.60000000000002,1.814667
104.80000000000008,1.816381
105.0,1.817826
105.20000000000005,1.820212
105.39999999999998,1.824574
105.60000000000002,1.82869
105.80000000000008,1.832376
106.0,1.836894
106.20000000000005,1.842085
106.39999999999998,1.844219
106.60000000000002,1.844868
106.80000000000008,1.845152
107.0,1.845469
107.20000000000005,1.845962
107.39999999999998,1.847647
107.60000000000002,1.848997
107.80000000000008,1.851238
108.0,1.852179
108.20000000000005,1.855223
108.39999999999998,1.85852
108.60000000000002,1.862176
108.80000000000008,1.864187
109.0,1.867599
109.20000000000005,1.869281
109.39999999999998,1.871023
109.60000000000002,1.873774
109.80000000000008,1.875263
110.0,1.876856
110.20000000000005,1.87683
110.39999999999998,1.87797
110.60000000000002,1.879877
110.80000000000008,1.884325
111.0,1.888061
111.20000000000005,1.892789
111.39999999999998,1.896035
111.60000000000002,1.8967
111.80000000000008,1.895817
112.0,1.894377
112.20000000000005,1.895237
112.39999999999998,1.897406
112.60000000000002,1.899834
112.80000000000008,1.902522
113.0,1.905705
113.20000000000005,1.906233
113.39999999999998,1.905196
113.60000000000002,1.90669
113.80000000000008,1.909041
114.0,1.911144
114.20000000000005,1.913469
114.39999999999998,1.917363
114.60000000000002,1.92118
114.80000000000008,1.923287
115.0,1.924254
115.20000000000005,1.924116
115.39999999999998,1.921563
115.60000000000002,1.920552
115.80000000000008,1.921991
116.0,1.92402
116.20000000000005,1.926587
116.39999999999998,1.93173
116.60000000000002,1.934854
116.80000000000008,1.935421
117.0,1.937019
117.20000000000005,1.940636
117.39999999999998,1.944994
117.60000000000002,1.948635
117.80000000000008,1.952259
118.0,1.955074
118.20000000000005,1.955874
118.39999999999998,1.956005
118.60000000000002,1.956161
118.80000000000008,1.956183
119.0,1.956058
119.20000000000005,1.95883
119.39999999999998,1.96213
119.60000000000002,1.964679
119.80000000000008,1.968134
120.0,1.971215
120.20000000000005,1.974415
120.39999999999998,1.976589
120.60000000000002,1.979978
120.80000000000008,1.983728
121.0,1.987122
121.20000000000005,1.988624
121.39999999999998,1.98785
121.60000000000002,1.987758
121.80000000000008,1.984904
122.0,1.984053
122.20000000000005,1.982711
122.39999999999998,1.984732
122.60000000000002,1.986046
122.80000000000008,1.989251
123.0,1.992248
123.20000000000005,1.995516
123.39999999999998,1.997095
123.60000000000002,1.999669
123.80000000000008,2.002376
124.0,2.0043930000000003
124.20000000000005,2.00708
124.39999999999998,2.008859
124.60000000000002,2.009586
124.80000000000008,2.01146
125.0,2.013916
125.20000000000005,2.014076
125.39999999999998,2.014749
125.60000000000002,2.016989
125.80000000000008,2.020275
126.0,2.02122
126.20000000000005,2.023415
126.39999999999998,2.025416
126.60000000000002,2.025924
126.80000000000008,2.025817
127.0,2.029724
127.20000000000005,2.0335150000000004
127.39999999999998,2.036524
127.60000000000002,2.038803
127.80000000000008,2.039521
128.0,2.036496
128.20000000000005,2.035538
128.39999999999998,2.038145
128.60000000000002,2.042619
128.80000000000007,2.046819
129.0,2.051327
129.20000000000005,2.054334
129.39999999999998,2.053366
129.60000000000002,2.053243
129.80000000000007,2.052852
130.0,2.054544
130.20000000000005,2.054792
130.39999999999998,2.056934
130.60000000000002,2.056711
130.80000000000007,2.057348
131.0,2.057653
131.20000000000005,2.059207
131.39999999999998,2.059862
131.60000000000002,2.061502
131.80000000000007,2.063906
132.0,2.065518
132.20000000000005,2.0666140000000004
132.39999999999998,2.0693970000000004
132.60000000000002,2.071954
132.80000000000007,2.073135
133.0,2.0756430000000003
133.20000000000005,2.0775490000000003
133.39999999999998,2.080534
133.60000000000002,2.083044
133.80000000000007,2.087235
134.0,2.088861
134.20000000000005,2.090206
134.39999999999998,2.0891260000000003
134.60000000000002,2.090106
134.80000000000007,2.091842
135.0,2.093622
135.20000000000005,2.096316
135.39999999999998,2.098681
135.60000000000002,2.101609
135.80000000000007,2.1025220000000004
136.0,2.103924
136.20000000000005,2.105053
136.39999999999998,2.107107
136.60000000000002,2.107748
136.80000000000007,2.107669
137.0,2.109055
137.20000000000005,2.1111310000000003
137.39999999999998,2.111092
137.60000000000002,2.111039
137.80000000000007,2.1111380000000004
138.0,2.112191
138.20000000000005,2.1120590000000004
138.39999999999998,2.115403
138.60000000000002,2.118211
138.80000000000007,2.1234210000000004
139.0,2.126683
139.20000000000005,2.130208
139.39999999999998,2.1305430000000003
139.60000000000002,2.1314450000000003
139.80000000000007,2.131889
140.0,2.132687
140.20000000000005,2.134837
