Time (s),Shift (nm)
0.0,0.0
0.1999999999999886,0.0056250000000002
0.3999999999999772,0.0105790000000003
0.5999999999999659,0.0190110000000003
0.8000000000000114,0.0255430000000003
1.0,0.029319
1.1999999999999886,0.0322170000000001
1.3999999999999773,0.036118
1.6000000000000227,0.0392160000000001
1.8000000000000114,0.0429340000000002
2.0,0.0459179999999999
2.1999999999999886,0.0505530000000002
2.3999999999999773,0.053528
2.6000000000000227,0.0558290000000001
2.800000000000012,0.0579019999999999
3.0,0.061484
3.1999999999999886,0.0649250000000001
3.3999999999999773,0.066008
3.6000000000000227,0.0666190000000002
3.8000000000000114,0.0664980000000001
4.0,0.0673340000000002
4.199999999999989,0.0705249999999999
4.399999999999977,0.0769290000000002
4.600000000000023,0.0842979999999999
4.800000000000011,0.0875410000000003
5.0,0.0880960000000001
5.199999999999989,0.0863400000000003
5.399999999999977,0.0858959999999999
5.600000000000023,0.0853740000000002
5.800000000000011,0.0896150000000002
6.0,0.0921099999999999
6.199999999999989,0.0951680000000001
6.399999999999977,0.0973390000000002
6.600000000000023,0.0983520000000002
6.800000000000011,0.0951550000000001
7.0,0.0956200000000002
7.199999999999989,0.0980859999999999
7.399999999999977,0.09993
7.600000000000023,0.1002909999999999
7.800000000000011,0.101102
8.0,0.1018539999999998
8.199999999999989,0.1016650000000001
8.399999999999977,0.1028489999999999
8.600000000000023,0.10575
8.800000000000011,0.110144
9.0,0.1131730000000001
9.199999999999989,0.1149249999999999
9.399999999999975,0.114344
9.600000000000025,0.1135320000000001
9.800000000000011,0.1108440000000001
10.0,0.1086409999999999
10.199999999999989,0.1075349999999999
10.399999999999975,0.1090500000000003
10.600000000000025,0.1131630000000001
10.800000000000011,0.1163790000000002
11.0,0.1203540000000003
11.199999999999989,0.1197880000000002
11.399999999999975,0.1188009999999999
11.600000000000025,0.1159240000000001
11.800000000000011,0.1177920000000001
12.0,0.1192410000000001
12.199999999999989,0.1230579999999998
12.399999999999975,0.125601
12.600000000000025,0.1282800000000001
12.800000000000011,0.128511
13.0,0.1284620000000003
13.199999999999989,0.1299290000000001
13.399999999999975,0.133429
13.600000000000025,0.1361159999999999
13.800000000000011,0.1389089999999999
14.0,0.1380310000000002
14.199999999999989,0.1375570000000001
14.399999999999975,0.1347770000000001
14.600000000000025,0.1335489999999999
14.800000000000011,0.1313900000000001
15.0,0.1333850000000001
15.199999999999989,0.1350329999999999
15.399999999999975,0.137261
15.600000000000025,0.1398330000000003
15.800000000000011,0.1431050000000002
16.0,0.1460910000000002
16.19999999999999,0.147113
16.399999999999977,0.1472929999999999
16.600000000000023,0.1450620000000002
16.80000000000001,0.1432869999999999
17.0,0.1413519999999999
17.19999999999999,0.1418189999999999
17.399999999999977,0.1448780000000002
17.600000000000023,0.1475759999999999
17.80000000000001,0.150878
18.0,0.1516770000000002
18.19999999999999,0.1537230000000002
18.399999999999977,0.1552679999999999
18.600000000000023,0.1576900000000001
18.80000000000001,0.1576919999999999
19.0,0.1584000000000003
19.19999999999999,0.1560730000000001
19.399999999999977,0.1508639999999999
19.600000000000023,0.1468120000000001
19.80000000000001,0.1456400000000002
20.0,0.146125
20.19999999999999,0.1487760000000002
20.399999999999977,0.1521020000000001
20.600000000000023,0.1540790000000003
20.80000000000001,0.1551550000000001
21.0,0.1565069999999999
21.19999999999999,0.1563310000000002
21.399999999999977,0.1555680000000001
21.600000000000023,0.1557150000000002
21.80000000000001,0.154859
22.0,0.1539070000000002
22.19999999999999,0.1518060000000001
22.399999999999977,0.1526110000000002
22.600000000000023,0.1545430000000003
22.80000000000001,0.1564830000000001
23.0,0.1566179999999999
23.19999999999999,0.1569389999999999
23.399999999999977,0.157505
23.600000000000023,0.158001
23.80000000000001,0.1588160000000003
24.0,0.159869
24.19999999999999,0.162436
24.399999999999977,0.1625290000000001
24.600000000000023,0.1616539999999999
24.80000000000001,0.1608979999999999
25.0,0.1621049999999999
25.19999999999999,0.162379
25.399999999999977,0.164034
25.600000000000023,0.1639690000000002
25.80000000000001,0.164495
26.0,0.163901
26.19999999999999,0.1640760000000001
26.399999999999977,0.1637180000000002
26.600000000000023,0.1654500000000003
26.80000000000001,0.165683
27.0,0.1664950000000002
27.19999999999999,0.1653380000000002
27.399999999999977,0.1640580000000002
27.600000000000023,0.1634660000000001
27.80000000000001,0.165896
28.0,0.1699790000000001
28.19999999999999,0.17585
28.399999999999977,0.1792720000000001
28.600000000000023,0.1808290000000001
28.80000000000001,0.180177
29.0,0.1772770000000001
29.19999999999999,0.1747369999999999
29.399999999999977,0.1742440000000003
29.600000000000023,0.1755140000000001
29.80000000000001,0.1788540000000003
30.0,0.1810130000000001
30.19999999999999,0.1804269999999999
30.399999999999977,0.179205
30.600000000000023,0.1774279999999999
30.80000000000001,0.1743640000000001
31.0,0.1741260000000002
31.19999999999999,0.1777390000000003
31.399999999999977,0.1823779999999999
31.600000000000023,0.1855640000000002
31.80000000000001,0.1876770000000003
32.0,0.1889660000000002
32.19999999999999,0.1848990000000001
32.39999999999998,0.1822210000000002
32.60000000000002,0.1800600000000001
32.80000000000001,0.1789800000000001
33.0,0.1781000000000001
33.19999999999999,0.1810520000000002
33.39999999999998,0.183081
33.60000000000002,0.1848
33.80000000000001,0.186833
34.0,0.187376
34.19999999999999,0.1879949999999999
34.39999999999998,0.1887970000000001
34.60000000000002,0.189705
34.80000000000001,0.1872440000000002
35.0,0.1870199999999999
35.19999999999999,0.1872310000000001
35.39999999999998,0.189356
35.60000000000002,0.1906730000000003
35.80000000000001,0.1909529999999999
36.0,0.1872229999999999
36.19999999999999,0.1818310000000003
36.39999999999998,0.1756670000000002
36.60000000000002,0.1735310000000001
36.80000000000001,0.1753620000000002
37.0,0.1801919999999999
37.19999999999999,0.1858400000000002
37.39999999999998,0.190331
37.60000000000002,0.1932360000000001
37.80000000000001,0.1942129999999999
38.0,0.1936729999999999
38.19999999999999,0.192231
38.39999999999998,0.1904270000000001
38.60000000000002,0.1872039999999999
38.80000000000001,0.1868970000000001
39.0,0.187548
39.19999999999999,0.1902440000000003
39.39999999999998,0.1926040000000002
39.60000000000002,0.1964540000000001
39.80000000000001,0.1996760000000002
40.0,0.2001409999999999
40.19999999999999,0.2002220000000001
40.39999999999998,0.1995249999999999
40.60000000000002,0.1986920000000003
40.80000000000001,0.195735
41.0,0.1939009999999998
41.19999999999999,0.191437
41.39999999999998,0.1867990000000001
41.60000000000002,0.1809700000000003
41.80000000000001,0.1802540000000001
42.0,0.1838000000000001
42.19999999999999,0.1871439999999999
42.39999999999998,0.1917850000000003
42.60000000000002,0.1974659999999999
42.80000000000001,0.1995970000000002
43.0,0.1985220000000001
43.19999999999999,0.1974650000000002
43.39999999999998,0.198744
43.60000000000002,0.1983079999999999
43.80000000000001,0.1992880000000001
44.0,0.1995249999999999
44.19999999999999,0.2001789999999998
44.39999999999998,0.200866
44.60000000000002,0.201073
44.80000000000001,0.2004299999999998
45.0,0.199532
45.19999999999999,0.1974070000000001
45.39999999999998,0.1940509999999999
45.60000000000002,0.1914800000000003
45.80000000000001,0.186998
46.0,0.1837949999999999
46.19999999999999,0.1826780000000001
46.39999999999998,0.1847570000000002
46.60000000000002,0.1897109999999999
46.80000000000001,0.194836
47.0,0.199376
47.19999999999999,0.202264
47.39999999999998,0.2047410000000002
47.60000000000002,0.2040730000000001
47.80000000000001,0.2035080000000002
48.0,0.2034199999999999
48.19999999999999,0.2047889999999999
48.39999999999998,0.2041919999999999
48.60000000000002,0.2030090000000002
48.80000000000001,0.202423
49.0,0.2032980000000002
49.19999999999999,0.2037789999999999
49.39999999999998,0.2032709999999999
49.60000000000002,0.2042130000000002
49.80000000000001,0.206229
50.0,0.2075020000000003
50.19999999999999,0.2078269999999999
50.39999999999998,0.2081330000000001
50.60000000000002,0.2097199999999999
50.80000000000001,0.2095039999999999
51.0,0.206709
51.19999999999999,0.2042869999999998
51.39999999999998,0.2045880000000002
51.60000000000002,0.202998
51.80000000000001,0.2018200000000001
52.0,0.2044399999999999
52.19999999999999,0.206811
52.39999999999998,0.2061350000000001
52.60000000000002,0.2066340000000002
52.80000000000001,0.2091769999999999
53.0,0.2093470000000001
53.19999999999999,0.20615
53.39999999999998,0.205899
53.60000000000002,0.207681
53.80000000000001,0.208504
54.0,0.2072380000000002
54.19999999999999,0.2094450000000001
54.39999999999998,0.211443
54.60000000000002,0.211468
54.80000000000001,0.2114830000000003
55.0,0.21455
55.19999999999999,0.2180029999999999
55.39999999999998,0.2195430000000002
55.60000000000002,0.2189399999999999
55.80000000000001,0.2172100000000001
56.0,0.2151510000000001
56.19999999999999,0.212482
56.39999999999998,0.2093570000000002
56.60000000000002,0.207859
56.80000000000001,0.2059640000000002
57.0,0.2043430000000001
57.19999999999999,0.2047099999999999
57.39999999999998,0.206747
57.60000000000002,0.211446
57.80000000000001,0.214801
58.0,0.216336
58.19999999999999,0.2168619999999999
58.39999999999998,0.218531
58.60000000000002,0.2180919999999999
58.80000000000001,0.218318
59.0,0.2191589999999998
59.19999999999999,0.2183030000000001
59.39999999999998,0.2143060000000001
59.60000000000002,0.2108060000000002
59.80000000000001,0.2084380000000001
60.0,0.2061600000000001
60.19999999999999,0.2053210000000001
60.39999999999998,0.2051750000000001
60.60000000000002,0.2059109999999999
60.80000000000001,0.2073780000000002
61.0,0.2085300000000001
61.200000000000045,0.2086809999999999
61.39999999999998,0.2088909999999999
61.60000000000002,0.2103190000000001
61.79999999999996,0.2109010000000002
62.0,0.2145079999999999
62.200000000000045,0.218569
62.39999999999998,0.222023
62.60000000000002,0.2199680000000001
62.79999999999996,0.2178599999999999
63.0,0.2151610000000001
63.200000000000045,0.2132360000000002
63.39999999999998,0.2115560000000003
63.60000000000002,0.2134789999999999
63.79999999999996,0.2152980000000002
64.0,0.2171319999999998
64.20000000000005,0.2179610000000003
64.39999999999998,0.2194210000000001
64.60000000000002,0.21923
64.79999999999995,0.2196199999999999
65.0,0.219932
65.20000000000005,0.2204740000000002
65.39999999999998,0.221365
65.60000000000002,0.2212200000000002
65.79999999999995,0.2204540000000001
66.0,0.2194500000000001
66.20000000000005,0.2207850000000002
66.39999999999998,0.220355
66.60000000000002,0.2200280000000001
66.79999999999995,0.2207340000000002
67.0,0.2210170000000002
67.20000000000005,0.2198070000000003
67.39999999999998,0.2208710000000002
67.60000000000002,0.222258
67.79999999999995,0.2229399999999999
68.0,0.2233400000000003
68.20000000000005,0.2217489999999999
68.39999999999998,0.2192340000000001
68.60000000000002,0.2177899999999999
68.79999999999995,0.2181480000000002
69.0,0.2198090000000001
69.20000000000005,0.2230240000000001
69.39999999999998,0.2259839999999999
69.60000000000002,0.2294800000000001
69.79999999999995,0.232634
70.0,0.2338610000000001
70.20000000000005,0.2336590000000002
70.39999999999998,0.231389
70.60000000000002,0.2283029999999999
70.79999999999995,0.224253
71.0,0.2212309999999999
71.20000000000005,0.2175440000000001
71.39999999999998,0.2184310000000002
71.60000000000002,0.2210700000000001
71.79999999999995,0.223805
72.0,0.224917
72.20000000000005,0.2275309999999999
72.39999999999998,0.2289609999999999
72.60000000000002,0.2274020000000001
72.79999999999995,0.2249889999999998
73.0,0.2230690000000001
73.20000000000005,0.22344
73.39999999999998,0.224034
73.60000000000002,0.227748
73.79999999999995,0.2314579999999999
74.0,0.2353300000000002
74.20000000000005,0.2375510000000003
74.39999999999998,0.2394860000000003
74.60000000000002,0.2407720000000002
74.79999999999995,0.2408559999999999
75.0,0.2413780000000001
75.20000000000005,0.2408890000000001
75.39999999999998,0.2395439999999999
75.60000000000002,0.2357439999999999
75.79999999999995,0.2335500000000001
76.0,0.2318350000000002
76.20000000000005,0.2305250000000001
76.39999999999998,0.2299150000000001
76.60000000000002,0.2304300000000001
76.79999999999995,0.2307680000000003
77.0,0.2325520000000001
77.20000000000005,0.2345390000000002
77.39999999999998,0.2373540000000003
77.60000000000002,0.2400899999999999
77.79999999999995,0.2415480000000003
78.0,0.2389920000000001
78.20000000000005,0.2349700000000001
78.39999999999998,0.2308150000000002
78.60000000000002,0.2279370000000002
78.79999999999995,0.2279230000000001
79.0,0.2311710000000002
79.20000000000005,0.2360220000000001
79.39999999999998,0.237489
79.60000000000002,0.2393270000000003
79.79999999999995,0.2416360000000001
80.0,0.2413860000000003
80.20000000000005,0.2415069999999999
80.39999999999998,0.2438600000000002
80.60000000000002,0.2443750000000002
80.79999999999995,0.2427489999999998
81.0,0.2431239999999999
81.20000000000005,0.2430110000000001
81.39999999999998,0.2426400000000002
81.60000000000002,0.2409210000000001
81.79999999999995,0.2392630000000002
82.0,0.2372830000000001
82.20000000000005,0.2365490000000001
82.39999999999998,0.2355080000000002
82.60000000000002,0.2376800000000001
82.79999999999995,0.239805
83.0,0.2398220000000002
83.20000000000005,0.2366139999999998
83.39999999999998,0.2350530000000001
83.60000000000002,0.2340770000000001
83.79999999999995,0.2327590000000001
84.0,0.2331509999999998
84.20000000000005,0.2347239999999999
84.39999999999998,0.237241
84.60000000000002,0.2379410000000001
84.79999999999995,0.242204
85.0,0.2456590000000003
85.20000000000005,0.249114
85.39999999999998,0.2496879999999999
85.60000000000002,0.2484740000000003
85.79999999999995,0.2444489999999999
86.0,0.2422740000000001
86.20000000000005,0.2413120000000002
86.39999999999998,0.2410450000000001
86.60000000000002,0.2418990000000001
86.79999999999995,0.244542
87.0,0.2462089999999999
87.20000000000005,0.2472530000000001
87.39999999999998,0.2474320000000003
87.60000000000002,0.2476190000000002
87.79999999999995,0.244577
88.0,0.2400570000000002
88.20000000000005,0.2370140000000002
88.39999999999998,0.2349619999999999
88.60000000000002,0.2344270000000001
88.79999999999995,0.2369180000000001
89.0,0.2423250000000001
89.20000000000005,0.2467670000000001
89.39999999999998,0.2503410000000001
89.60000000000002,0.2526170000000003
89.79999999999995,0.253276
90.0,0.2515740000000002
90.20000000000005,0.2483900000000001
90.39999999999998,0.24465
90.60000000000002,0.245635
90.79999999999995,0.2480009999999999
91.0,0.2513779999999999
91.20000000000005,0.2533470000000002
91.39999999999998,0.2554410000000002
91.60000000000002,0.251195
91.79999999999995,0.2457950000000002
92.0,0.2428060000000003
92.20000000000005,0.2435400000000003
92.39999999999998,0.245028
92.60000000000002,0.2479960000000001
92.79999999999995,0.2507580000000002
93.0,0.2524160000000002
93.20000000000005,0.2559590000000002
93.39999999999998,0.2587939999999999
93.60000000000002,0.2600850000000001
93.79999999999995,0.260005
94.0,0.2594240000000001
94.20000000000005,0.2523680000000001
94.39999999999998,0.244412
94.60000000000002,0.2412170000000002
94.79999999999995,0.2432929999999999
95.0,0.2452330000000002
95.20000000000005,0.2511160000000001
95.39999999999998,0.2563940000000002
95.60000000000002,0.257228
95.79999999999995,0.25462
96.0,0.2528800000000002
96.20000000000005,0.250585
96.39999999999998,0.2508539999999999
96.60000000000002,0.2528779999999999
96.79999999999995,0.254086
97.0,0.2544210000000002
97.20000000000005,0.2529430000000001
97.39999999999998,0.25251
97.60000000000002,0.2536
97.79999999999995,0.255287
98.0,0.256631
98.20000000000005,0.2564660000000001
98.39999999999998,0.2570410000000001
98.60000000000002,0.2542710000000001
98.79999999999995,0.2526390000000003
99.0,0.2528239999999999
99.20000000000005,0.2549890000000001
99.39999999999998,0.2558359999999999
99.60000000000002,0.259652
99.79999999999995,0.261384
100.0,0.2602410000000001
100.20000000000005,0.2606040000000003
100.39999999999998,0.2589390000000002
100.60000000000002,0.2541730000000002
100.79999999999995,0.2501169999999999
101.0,0.2490260000000002
101.20000000000005,0.2500979999999999
101.39999999999998,0.2533090000000002
101.60000000000002,0.2579389999999999
101.79999999999995,0.2628950000000003
102.0,0.2658149999999999
102.20000000000005,0.2668919999999999
102.39999999999998,0.2662789999999999
102.60000000000002,0.2649569999999999
102.79999999999995,0.2654849999999999
103.0,0.2648999999999999
103.20000000000005,0.2636730000000002
103.39999999999998,0.2639040000000001
103.60000000000002,0.2650160000000001
103.79999999999995,0.261876
104.0,0.2625830000000002
104.20000000000005,0.2641240000000002
104.39999999999998,0.2662110000000002
104.60000000000002,0.2666170000000001
104.79999999999995,0.2693940000000001
105.0,0.26952
105.20000000000005,0.2668750000000002
105.39999999999998,0.2621950000000002
105.60000000000002,0.260208
105.79999999999995,0.2606510000000002
106.0,0.262127
106.20000000000005,0.2665250000000001
106.39999999999998,0.274216
106.60000000000002,0.2785190000000002
106.79999999999995,0.2804489999999999
107.0,0.2800510000000002
107.20000000000005,0.2797300000000002
107.39999999999998,0.2749580000000002
107.60000000000002,0.2704500000000003
107.79999999999995,0.2648670000000002
108.0,0.2602489999999999
108.20000000000005,0.2560980000000001
108.39999999999998,0.2558310000000001
108.60000000000002,0.260891
108.79999999999995,0.2654840000000003
109.0,0.2691210000000001
109.20000000000005,0.2694749999999999
109.39999999999998,0.2693790000000002
109.60000000000002,0.267598
109.79999999999995,0.2670859999999999
110.0,0.2677010000000002
110.20000000000005,0.2696170000000002
110.39999999999998,0.2691669999999999
110.60000000000002,0.2688770000000002
110.79999999999995,0.2702360000000001
111.0,0.2717490000000002
111.20000000000005,0.2731880000000002
111.39999999999998,0.274416
111.60000000000002,0.2720739999999999
111.79999999999995,0.2679400000000003
112.0,0.265393
112.20000000000005,0.264116
112.39999999999998,0.2646260000000002
112.60000000000002,0.2677529999999999
112.79999999999995,0.270705
113.0,0.2730079999999999
113.20000000000005,0.274785
113.39999999999998,0.2750129999999999
113.60000000000002,0.2739570000000002
113.79999999999995,0.2727280000000003
114.0,0.2702080000000002
114.20000000000005,0.268119
114.39999999999998,0.2678169999999999
114.60000000000002,0.2708699999999999
114.79999999999995,0.271881
115.0,0.2725279999999999
115.20000000000005,0.2692030000000001
115.39999999999998,0.2658910000000003
115.60000000000002,0.2617190000000002
115.79999999999995,0.2605910000000002
116.0,0.2614749999999999
116.20000000000005,0.2646820000000001
116.39999999999998,0.2656469999999999
116.60000000000002,0.266238
116.79999999999995,0.2673200000000002
117.0,0.2669550000000003
117.20000000000005,0.2672050000000001
117.39999999999998,0.2693780000000001
117.60000000000002,0.2697829999999999
117.79999999999995,0.270442
118.0,0.271547
118.20000000000005,0.2744460000000002
118.39999999999998,0.274537
118.60000000000002,0.276831
118.79999999999995,0.278286
119.0,0.2799800000000001
119.20000000000005,0.2782690000000003
119.39999999999998,0.2768100000000002
119.60000000000002,0.2732220000000001
119.79999999999995,0.2717119999999999
120.0,0.2717
120.20000000000005,0.273412
120.39999999999998,0.27881
120.60000000000002,0.2840880000000001
120.79999999999995,0.2850680000000003
121.0,0.2819790000000002
121.20000000000005,0.2793610000000002
121.39999999999998,0.2753680000000003
121.60000000000002,0.272583
121.79999999999995,0.2732030000000001
122.0,0.274664
122.20000000000005,0.2766160000000002
122.39999999999998,0.2789930000000002
122.60000000000002,0.2788140000000001
122.79999999999995,0.2755710000000002
