Time (s),Shift (nm)
0.0,0.0
0.1999999999999886,-0.0020229999999998
0.4000000000000341,-0.0038759999999999
0.6000000000000227,-0.0037310000000001
0.8000000000000114,-0.0022519999999999
1.0,-0.0007679999999998
1.1999999999999886,0.000998
1.400000000000034,0.0033919999999998
1.6000000000000227,0.0059279999999999
1.8000000000000114,0.0073469999999997
2.0,0.009077
2.1999999999999886,0.0121999999999999
2.400000000000034,0.0150619999999999
2.6000000000000227,0.0193590000000001
2.800000000000012,0.023276
3.0,0.0261969999999998
3.1999999999999886,0.0281539999999997
3.400000000000034,0.029773
3.6000000000000227,0.0282879999999998
3.8000000000000114,0.026637
4.0,0.027743
4.199999999999989,0.0296889999999998
4.400000000000034,0.033668
4.600000000000023,0.0402390000000001
4.800000000000011,0.0470030000000001
5.0,0.051231
5.199999999999989,0.0529579999999998
5.400000000000034,0.053417
5.600000000000023,0.052896
5.800000000000011,0.0540150000000001
6.0,0.0559069999999999
6.199999999999989,0.0590099999999997
6.400000000000034,0.0602469999999999
6.600000000000023,0.0621309999999999
6.800000000000011,0.063072
7.0,0.0637050000000001
7.199999999999989,0.064575
7.400000000000034,0.0687079999999999
7.600000000000023,0.0714049999999999
7.800000000000011,0.0732049999999997
8.0,0.0736349999999999
8.199999999999989,0.0755810000000001
8.400000000000034,0.0776750000000001
8.600000000000023,0.0804849999999999
8.800000000000011,0.0831439999999998
9.0,0.0873209999999997
9.199999999999989,0.0910709999999999
9.400000000000034,0.092842
9.600000000000025,0.0937739999999998
9.800000000000011,0.0926800000000001
10.0,0.091266
10.199999999999989,0.0901640000000001
10.400000000000034,0.091504
10.600000000000025,0.093191
10.800000000000011,0.0962769999999997
11.0,0.0998989999999997
11.199999999999989,0.1016300000000001
11.400000000000034,0.1014349999999999
11.600000000000025,0.1031809999999997
11.800000000000011,0.1080149999999999
12.0,0.1120839999999998
12.199999999999989,0.1179670000000001
12.400000000000034,0.1231979999999999
12.600000000000025,0.1265359999999997
12.800000000000011,0.1268389999999999
13.0,0.12724
13.199999999999989,0.1279889999999999
13.400000000000034,0.1300529999999997
13.600000000000025,0.1316319999999997
13.800000000000011,0.1342149999999997
14.0,0.1366
14.199999999999989,0.1378080000000001
14.400000000000034,0.1375679999999999
14.600000000000025,0.1369280000000001
14.800000000000011,0.1359749999999997
15.0,0.136317
15.199999999999989,0.1366399999999998
15.400000000000034,0.1379000000000001
15.600000000000025,0.1398419999999998
15.800000000000011,0.1427480000000001
16.0,0.144225
16.19999999999999,0.1456509999999999
16.400000000000034,0.1462889999999999
16.600000000000023,0.1485059999999998
16.80000000000001,0.1528089999999999
17.0,0.1583899999999998
17.19999999999999,0.1642860000000001
17.400000000000034,0.1688299999999998
17.600000000000023,0.170563
17.80000000000001,0.1709800000000001
18.0,0.1721159999999999
18.19999999999999,0.1734019999999998
18.400000000000038,0.1766290000000001
18.600000000000023,0.1815669999999998
18.80000000000001,0.1845699999999999
19.0,0.1843289999999999
19.19999999999999,0.18358
19.400000000000038,0.183605
19.600000000000023,0.1819669999999997
19.80000000000001,0.1819239999999999
20.0,0.1829519999999997
20.19999999999999,0.1859649999999999
20.400000000000038,0.187821
20.600000000000023,0.189238
20.80000000000001,0.1894219999999999
21.0,0.1910910000000001
21.19999999999999,0.1921409999999999
21.400000000000038,0.1942749999999997
21.600000000000023,0.196879
21.80000000000001,0.2000489999999999
22.0,0.2020559999999998
22.19999999999999,0.2022779999999997
22.400000000000038,0.2016
22.600000000000023,0.2036059999999997
22.80000000000001,0.205902
23.0,0.210105
23.19999999999999,0.2137449999999998
23.400000000000038,0.2170130000000001
23.600000000000023,0.2180469999999998
23.80000000000001,0.2182969999999997
24.0,0.2175859999999998
24.19999999999999,0.217381
24.400000000000038,0.218334
24.600000000000023,0.2188509999999999
24.80000000000001,0.2205330000000001
25.0,0.2233399999999998
25.19999999999999,0.2270780000000001
25.400000000000038,0.229708
25.600000000000023,0.2327369999999997
25.80000000000001,0.2360929999999999
26.0,0.2374239999999998
26.19999999999999,0.2380219999999999
26.400000000000038,0.239557
26.600000000000023,0.2427109999999999
26.80000000000001,0.244698
27.0,0.2461379999999997
27.19999999999999,0.2462599999999999
27.400000000000038,0.2454849999999999
27.600000000000023,0.2439559999999998
27.80000000000001,0.2425839999999999
28.0,0.2423869999999999
28.19999999999999,0.2447810000000001
28.400000000000038,0.2483019999999998
28.600000000000023,0.252469
28.80000000000001,0.2556949999999998
29.0,0.2588319999999999
29.19999999999999,0.2614290000000001
29.400000000000038,0.263824
29.600000000000023,0.2640919999999997
29.80000000000001,0.2652570000000001
30.0,0.2659769999999999
30.19999999999999,0.2665820000000001
30.400000000000038,0.2659509999999998
30.600000000000023,0.2675429999999998
30.80000000000001,0.2689490000000001
31.0,0.272472
31.19999999999999,0.276434
31.400000000000038,0.2806699999999997
31.600000000000023,0.2822329999999997
31.80000000000001,0.2850769999999998
32.0,0.287134
32.19999999999999,0.2883689999999999
32.400000000000034,0.2888630000000001
32.60000000000002,0.2899699999999998
32.80000000000001,0.2891469999999998
33.0,0.2882829999999998
33.19999999999999,0.2867199999999998
33.400000000000034,0.2877179999999999
33.60000000000002,0.289406
33.80000000000001,0.2925140000000001
34.0,0.2950710000000001
34.19999999999999,0.300278
34.400000000000034,0.304796
34.60000000000002,0.3094000000000001
34.80000000000001,0.3105820000000001
35.0,0.312348
35.19999999999999,0.3131189999999999
35.400000000000034,0.3142399999999998
35.60000000000002,0.3126109999999999
35.80000000000001,0.3136489999999998
36.0,0.3139379999999998
36.19999999999999,0.3149709999999999
36.400000000000034,0.3143979999999997
36.60000000000002,0.3177149999999997
36.80000000000001,0.320945
37.0,0.3228949999999999
37.19999999999999,0.323874
37.400000000000034,0.3258999999999998
37.60000000000002,0.326279
37.80000000000001,0.3258619999999999
38.0,0.326546
38.19999999999999,0.3273129999999997
38.400000000000034,0.328103
38.60000000000002,0.3304439999999999
38.80000000000001,0.33243
39.0,0.3334060000000001
39.19999999999999,0.334416
39.400000000000034,0.335296
39.60000000000002,0.3351519999999999
39.80000000000001,0.3372799999999998
40.0,0.3407649999999997
40.19999999999999,0.3436849999999998
40.400000000000034,0.345161
40.60000000000002,0.346651
40.80000000000001,0.3479449999999997
41.0,0.348373
41.19999999999999,0.3484549999999999
41.400000000000034,0.3502830000000001
41.60000000000002,0.3539759999999998
41.80000000000001,0.3568609999999999
42.0,0.3599459999999999
42.19999999999999,0.361237
42.400000000000034,0.3622359999999998
42.60000000000002,0.3612310000000001
42.80000000000001,0.3607979999999999
43.0,0.3611930000000001
43.19999999999999,0.3646699999999998
43.400000000000034,0.3663409999999998
43.60000000000002,0.3681169999999998
43.80000000000001,0.3694899999999999
44.0,0.3700369999999999
44.19999999999999,0.3707989999999999
44.400000000000034,0.3736169999999998
44.60000000000002,0.3763890000000001
44.80000000000001,0.3785849999999997
45.0,0.3806509999999998
45.19999999999999,0.3830450000000001
45.400000000000034,0.3847739999999997
45.60000000000002,0.3882159999999999
45.80000000000001,0.3928720000000001
46.0,0.3956819999999998
46.19999999999999,0.3960559999999997
46.400000000000034,0.3958339999999998
46.60000000000002,0.3952550000000001
46.80000000000001,0.3947500000000001
47.0,0.3971659999999999
47.19999999999999,0.3995820000000001
47.400000000000034,0.4014479999999998
47.60000000000002,0.401319
47.80000000000001,0.4004970000000001
48.0,0.4002490000000001
48.19999999999999,0.4003049999999999
48.400000000000034,0.4020679999999998
48.60000000000002,0.4063379999999998
48.80000000000001,0.410231
49.0,0.413386
49.19999999999999,0.4164219999999998
49.400000000000034,0.4172789999999997
49.60000000000002,0.415823
49.80000000000001,0.4148549999999997
50.0,0.412277
50.19999999999999,0.4110809999999998
50.400000000000034,0.4135459999999997
50.60000000000002,0.4163909999999999
50.80000000000001,0.419473
51.0,0.4216489999999999
51.19999999999999,0.4236209999999998
51.400000000000034,0.4239289999999998
51.60000000000002,0.4253279999999999
51.80000000000001,0.4263349999999999
52.0,0.4278360000000001
52.19999999999999,0.428925
52.400000000000034,0.4296539999999997
52.60000000000002,0.4290279999999997
52.80000000000001,0.430266
53.0,0.4329860000000001
53.19999999999999,0.436258
53.400000000000034,0.4397609999999998
53.60000000000002,0.445144
53.80000000000001,0.4466529999999999
54.0,0.446428
54.19999999999999,0.4452259999999999
54.400000000000034,0.4453239999999998
54.60000000000002,0.4431020000000001
54.80000000000001,0.442129
55.0,0.441551
55.19999999999999,0.4422730000000001
55.400000000000034,0.4426529999999999
55.60000000000002,0.4445039999999998
55.80000000000001,0.4472689999999999
56.0,0.4500669999999998
56.19999999999999,0.4513029999999998
56.400000000000034,0.4520550000000001
56.60000000000002,0.453745
56.80000000000001,0.4561899999999999
57.0,0.4599280000000001
57.19999999999999,0.4630700000000001
57.400000000000034,0.4655999999999998
57.60000000000002,0.467721
57.80000000000001,0.4684270000000001
58.0,0.4674149999999999
58.19999999999999,0.4675029999999998
58.400000000000034,0.4686379999999999
58.60000000000002,0.4691399999999999
58.80000000000001,0.4697599999999999
59.0,0.4718059999999999
59.19999999999999,0.4735399999999998
59.400000000000034,0.4740189999999997
59.60000000000002,0.4740519999999999
59.80000000000001,0.4751759999999998
60.0,0.477738
60.19999999999999,0.480372
60.400000000000034,0.4831309999999997
60.60000000000002,0.4874230000000001
60.80000000000001,0.4902359999999999
61.0,0.4926360000000001
61.19999999999999,0.4960589999999998
61.400000000000034,0.4987970000000001
61.60000000000002,0.5008870000000001
61.80000000000001,0.5021040000000001
62.00000000000006,0.5026920000000001
62.19999999999999,0.503053
62.400000000000034,0.504461
62.599999999999966,0.5047549999999998
62.80000000000001,0.5045449999999998
63.00000000000006,0.5036719999999999
63.19999999999999,0.5021309999999999
63.400000000000034,0.5024069999999998
63.599999999999966,0.503428
63.80000000000001,0.50637
64.00000000000006,0.509001
64.19999999999999,0.5120979999999999
64.40000000000003,0.5133179999999999
64.59999999999997,0.5144799999999998
64.80000000000001,0.5163829999999998
65.00000000000006,0.5174289999999999
65.19999999999999,0.5185010000000001
65.40000000000003,0.5196579999999997
65.59999999999997,0.520607
65.80000000000001,0.5225789999999999
66.00000000000006,0.525865
66.19999999999999,0.5283090000000001
66.40000000000003,0.527898
66.59999999999997,0.5283349999999998
66.80000000000001,0.5265939999999998
67.00000000000006,0.524823
67.19999999999999,0.5242990000000001
67.40000000000003,0.526427
67.59999999999997,0.526843
67.80000000000001,0.5284529999999998
68.00000000000006,0.5302280000000001
68.19999999999999,0.5305839999999997
68.40000000000003,0.531828
68.59999999999997,0.5347149999999998
68.80000000000001,0.5361750000000001
69.00000000000006,0.5369259999999998
69.19999999999999,0.5366649999999997
69.40000000000003,0.536575
69.59999999999997,0.5357889999999998
69.80000000000001,0.5369199999999998
70.00000000000006,0.539015
70.19999999999999,0.542881
70.40000000000003,0.5452710000000001
70.59999999999997,0.5469040000000001
70.80000000000001,0.5462029999999998
71.00000000000006,0.5468229999999998
71.19999999999999,0.5497549999999998
71.40000000000003,0.55315
71.59999999999997,0.556657
71.80000000000001,0.560298
72.00000000000006,0.5635919999999999
72.19999999999999,0.5637970000000001
72.40000000000003,0.56378
72.59999999999997,0.564028
72.80000000000001,0.5642839999999998
73.00000000000006,0.562773
73.19999999999999,0.5615359999999998
73.40000000000003,0.5603069999999999
73.59999999999997,0.5615190000000001
73.80000000000001,0.5652759999999999
74.00000000000006,0.5696300000000001
74.19999999999999,0.5723180000000001
74.40000000000003,0.5743119999999999
74.59999999999997,0.5739380000000001
74.80000000000001,0.5733679999999999
75.00000000000006,0.5715729999999999
75.19999999999999,0.5731380000000001
75.40000000000003,0.5740059999999998
75.59999999999997,0.575431
75.80000000000001,0.5766309999999999
76.00000000000006,0.577652
76.19999999999999,0.5774810000000001
76.40000000000003,0.5793339999999998
76.59999999999997,0.5821009999999998
76.80000000000001,0.5849989999999998
77.00000000000006,0.5882929999999997
77.19999999999999,0.5921479999999999
77.40000000000003,0.595107
77.59999999999997,0.5955439999999999
77.80000000000001,0.5951559999999998
78.00000000000006,0.595262
78.19999999999999,0.5931829999999998
78.40000000000003,0.5916790000000001
78.59999999999997,0.591656
78.80000000000001,0.592571
79.00000000000006,0.5937209999999999
79.19999999999999,0.5969829999999998
79.40000000000003,0.5995749999999997
79.59999999999997,0.6027329999999997
79.80000000000001,0.6040220000000001
80.00000000000006,0.6052770000000001
80.19999999999999,0.6058620000000001
80.40000000000003,0.6066439999999997
80.59999999999997,0.6061860000000001
80.80000000000001,0.606395
81.00000000000006,0.6077140000000001
81.19999999999999,0.6097760000000001
81.40000000000003,0.6124139999999998
81.59999999999997,0.6158609999999998
81.80000000000001,0.62018
82.00000000000006,0.623186
82.19999999999999,0.625019
82.40000000000003,0.6257459999999999
82.59999999999997,0.6252279999999999
82.80000000000001,0.6229149999999999
83.00000000000006,0.6217129999999997
83.19999999999999,0.6205500000000002
83.40000000000003,0.6222729999999999
83.59999999999997,0.6236030000000001
83.80000000000001,0.6257160000000002
84.00000000000006,0.6272799999999998
84.19999999999999,0.630614
84.40000000000003,0.6320959999999998
84.59999999999997,0.6333630000000001
84.80000000000001,0.6335030000000001
85.00000000000006,0.6333039999999999
85.19999999999999,0.6311360000000001
85.40000000000003,0.6293579999999999
85.59999999999997,0.6293029999999997
85.80000000000001,0.630509
86.00000000000006,0.632806
86.19999999999999,0.634452
86.40000000000003,0.6365089999999998
86.59999999999997,0.638814
86.80000000000001,0.6418729999999999
87.00000000000006,0.6435849999999999
87.19999999999999,0.6472059999999997
87.40000000000003,0.6498110000000001
87.59999999999997,0.6508659999999997
87.80000000000001,0.6509939999999999
88.00000000000006,0.6518229999999998
88.19999999999999,0.6527829999999999
88.40000000000003,0.6532649999999998
88.59999999999997,0.6538399999999998
88.80000000000001,0.6552129999999998
89.00000000000006,0.6560829999999997
89.19999999999999,0.6570990000000001
89.40000000000003,0.659446
89.59999999999997,0.662738
89.80000000000001,0.6656469999999999
90.00000000000006,0.667557
90.2,0.6674519999999999
90.40000000000003,0.665575
90.59999999999997,0.6630180000000001
90.8,0.6611039999999999
91.00000000000006,0.660326
91.2,0.660933
91.40000000000003,0.6630370000000001
91.59999999999997,0.6670370000000001
91.8,0.6708989999999999
92.00000000000006,0.6734139999999997
92.2,0.6749369999999999
92.40000000000003,0.6749019999999999
92.59999999999997,0.6760859999999997
92.8,0.6757140000000001
93.00000000000006,0.6771180000000001
93.2,0.6795619999999998
93.40000000000003,0.682614
93.59999999999997,0.6814689999999999
93.8,0.6805020000000002
94.00000000000006,0.6793559999999998
94.2,0.6792029999999998
94.40000000000003,0.6795610000000001
94.59999999999997,0.681994
94.8,0.6840090000000001
95.00000000000006,0.6863479999999997
95.2,0.686722
95.40000000000003,0.6859139999999999
95.59999999999997,0.68573
95.8,0.6865779999999999
96.00000000000006,0.6879059999999999
96.2,0.6899739999999999
96.40000000000003,0.6943510000000002
96.59999999999997,0.6983950000000001
96.8,0.702
97.00000000000006,0.703293
97.2,0.704046
97.40000000000003,0.7033130000000001
97.59999999999997,0.7010339999999999
97.8,0.6981419999999998
98.00000000000006,0.6969219999999998
98.2,0.6964060000000001
98.40000000000003,0.6966730000000001
98.59999999999997,0.6983920000000001
98.8,0.700793
99.00000000000006,0.7032919999999998
99.2,0.7054369999999999
99.40000000000003,0.7076310000000001
99.59999999999997,0.7083819999999998
99.8,0.709463
100.00000000000006,0.7113070000000001
100.2,0.7141299999999999
100.40000000000003,0.7166079999999999
100.59999999999997,0.719649
100.8,0.7224599999999999
101.00000000000006,0.7232150000000002
101.2,0.7226680000000001
101.40000000000003,0.7231399999999999
101.59999999999997,0.7241330000000001
101.8,0.7242760000000001
102.00000000000006,0.7239390000000001
102.2,0.7240660000000001
102.40000000000003,0.7246619999999999
102.59999999999997,0.7248039999999998
102.8,0.726032
103.00000000000006,0.7293569999999998
103.2,0.7326389999999998
103.40000000000003,0.7335819999999997
103.59999999999997,0.7353169999999998
103.8,0.7377259999999999
104.00000000000006,0.7368549999999998
104.2,0.7340629999999999
104.40000000000003,0.7316729999999998
104.59999999999997,0.731601
104.8,0.7313130000000001
105.00000000000006,0.734629
105.2,0.7391640000000002
105.40000000000003,0.744567
105.59999999999997,0.746864
105.8,0.749317
106.00000000000006,0.7513329999999998
106.2,0.7532009999999998
106.40000000000003,0.7531400000000001
106.59999999999997,0.753012
106.8,0.7527379999999999
107.00000000000006,0.7508319999999999
107.2,0.7507129999999997
107.40000000000003,0.7503869999999999
107.59999999999997,0.7515610000000001
107.8,0.753136
108.00000000000006,0.7554089999999998
108.2,0.75766
108.40000000000003,0.7607889999999999
108.59999999999997,0.7614920000000001
108.8,0.760821
109.00000000000006,0.7593350000000001
109.2,0.7580800000000001
109.40000000000003,0.757476
109.59999999999997,0.7590019999999997
109.8,0.7603599999999999
110.00000000000006,0.7626809999999997
110.2,0.7649140000000001
110.40000000000003,0.765536
110.59999999999997,0.7660119999999999
110.8,0.766839
111.00000000000006,0.7683420000000001
111.2,0.7691249999999998
111.40000000000003,0.770464
111.59999999999997,0.7711679999999999
111.8,0.7710650000000001
112.00000000000006,0.7702610000000001
112.2,0.7677160000000001
112.40000000000003,0.7675749999999999
112.59999999999997,0.7683149999999999
112.8,0.771029
113.00000000000006,0.7736619999999998
113.2,0.7780309999999999
113.40000000000003,0.7811590000000002
113.59999999999997,0.7842340000000001
113.8,0.7852320000000002
114.00000000000006,0.7844349999999998
114.2,0.7833989999999997
114.40000000000003,0.7841930000000001
114.59999999999997,0.783725
114.8,0.783995
115.00000000000006,0.7885779999999998
115.2,0.792697
115.40000000000003,0.794562
115.59999999999997,0.7963589999999998
115.8,0.797714
116.00000000000006,0.7977799999999999
116.2,0.7977780000000001
116.40000000000003,0.7975979999999998
116.59999999999997,0.798432
116.8,0.800252
117.00000000000006,0.7997899999999998
117.2,0.7996430000000001
117.40000000000003,0.7990779999999997
117.59999999999997,0.799442
117.8,0.8003480000000001
118.00000000000006,0.802753
118.2,0.8059910000000001
118.40000000000003,0.8088379999999997
118.59999999999997,0.809466
118.8,0.8086929999999999
119.00000000000006,0.8077830000000001
119.2,0.8065359999999999
119.40000000000003,0.8064200000000001
119.59999999999997,0.8077999999999999
119.8,0.8096779999999999
120.00000000000006,0.8114019999999997
120.2,0.8135879999999998
120.40000000000003,0.8154569999999999
120.59999999999997,0.8169269999999997
120.8,0.8181910000000001
121.00000000000006,0.8195899999999998
121.2,0.819585
121.40000000000003,0.8190119999999999
121.59999999999997,0.8189250000000001
121.8,0.8193160000000002
122.00000000000006,0.820065
122.2,0.8221189999999998
122.40000000000003,0.825707
122.59999999999997,0.8282279999999997
122.8,0.8308520000000001
123.00000000000006,0.8305539999999998
123.2,0.8305889999999998
123.40000000000003,0.828824
123.59999999999997,0.827461
123.8,0.8254329999999999
124.00000000000006,0.8271289999999998
124.2,0.8294479999999997
