Time (s),Shift (nm)
0.0,0.0
0.1999999999999886,-0.0015139999999997
0.4000000000000341,0.0002699999999999
0.6000000000000227,0.002107
0.8000000000000114,0.011975
1.0000000000000568,0.02672
1.2000000000000457,0.0413939999999999
1.400000000000034,0.0539830000000001
1.6000000000000227,0.0655160000000001
1.8000000000000114,0.0761090000000002
2.000000000000057,0.0867530000000003
2.200000000000045,0.0989370000000002
2.400000000000034,0.1092050000000002
2.6000000000000227,0.1166720000000003
2.800000000000012,0.1235669999999999
3.000000000000057,0.1320920000000001
3.200000000000045,0.140292
3.400000000000034,0.1507309999999999
3.6000000000000227,0.160857
3.8000000000000114,0.1722650000000003
4.000000000000057,0.1813990000000003
4.2000000000000455,0.1897920000000001
4.400000000000034,0.1981950000000001
4.600000000000023,0.207357
4.800000000000011,0.2163750000000002
5.000000000000057,0.2244710000000003
5.2000000000000455,0.2311309999999999
5.400000000000034,0.2382490000000001
5.600000000000023,0.2452400000000003
5.800000000000011,0.251373
6.000000000000057,0.2566610000000002
6.2000000000000455,0.264434
6.400000000000034,0.271525
6.600000000000023,0.2806120000000001
6.800000000000011,0.2900290000000001
7.000000000000057,0.2992050000000001
7.2000000000000455,0.307998
7.400000000000034,0.3148430000000002
7.600000000000023,0.3196780000000001
7.800000000000011,0.3229570000000001
8.000000000000057,0.330146
8.200000000000045,0.3371560000000002
8.400000000000034,0.3447
8.600000000000023,0.3506690000000003
8.800000000000011,0.3569170000000001
9.000000000000057,0.362301
9.200000000000044,0.366635
9.400000000000034,0.3722989999999999
9.600000000000025,0.3779950000000003
9.800000000000011,0.38422
10.000000000000057,0.387232
10.200000000000044,0.3927050000000003
10.400000000000034,0.3977650000000001
10.600000000000025,0.4049100000000001
10.800000000000011,0.4118270000000001
11.000000000000057,0.4213900000000001
11.200000000000044,0.42917
11.400000000000034,0.4344300000000003
11.600000000000025,0.4395899999999999
11.800000000000011,0.4446669999999999
12.000000000000057,0.4493130000000001
12.200000000000044,0.45371
12.400000000000034,0.4583120000000003
12.600000000000025,0.4635910000000001
12.800000000000011,0.4681960000000003
13.000000000000057,0.4720370000000002
13.200000000000044,0.47594
13.400000000000034,0.482545
13.600000000000025,0.4868300000000003
13.800000000000011,0.4909989999999999
14.000000000000057,0.4943500000000003
14.200000000000044,0.4976880000000001
14.400000000000034,0.5012570000000003
14.600000000000025,0.5066520000000003
14.800000000000011,0.5125070000000003
15.000000000000057,0.520518
15.200000000000044,0.527584
15.400000000000034,0.5340389999999999
15.600000000000025,0.5388820000000001
15.800000000000011,0.5426580000000003
16.000000000000057,0.5450370000000002
16.200000000000045,0.5483190000000002
16.400000000000034,0.5503970000000002
16.600000000000023,0.5542100000000003
16.80000000000001,0.5579330000000002
17.000000000000057,0.5622720000000001
17.200000000000045,0.566443
17.400000000000034,0.5715600000000003
17.600000000000023,0.5748150000000001
17.80000000000001,0.5787400000000003
18.000000000000057,0.5825089999999999
18.200000000000045,0.5866670000000003
18.400000000000038,0.5890569999999999
18.600000000000023,0.5927390000000003
18.80000000000001,0.5970250000000004
19.000000000000057,0.6021430000000003
19.200000000000045,0.6060030000000003
19.400000000000038,0.6104730000000003
19.600000000000023,0.6131440000000001
19.80000000000001,0.6154200000000003
20.000000000000057,0.6157110000000001
20.200000000000045,0.6180350000000003
20.400000000000038,0.622141
20.600000000000023,0.6269279999999999
20.80000000000001,0.6311200000000001
21.000000000000057,0.6365060000000002
21.200000000000045,0.6407600000000002
21.400000000000038,0.6432410000000002
21.600000000000023,0.646042
21.80000000000001,0.649689
22.000000000000057,0.6548210000000001
22.200000000000045,0.6586950000000003
22.400000000000038,0.6635460000000002
22.600000000000023,0.6673020000000003
22.80000000000001,0.6712750000000001
23.000000000000057,0.6725110000000001
23.200000000000045,0.6746650000000001
23.400000000000038,0.6749940000000003
23.600000000000023,0.6757230000000001
23.80000000000001,0.6774520000000002
24.000000000000057,0.6787860000000001
24.200000000000045,0.6822370000000002
24.400000000000038,0.6879020000000002
24.600000000000023,0.6949810000000003
24.80000000000001,0.7001970000000002
25.000000000000057,0.7070850000000002
25.200000000000045,0.711557
25.400000000000038,0.7151580000000002
25.600000000000023,0.7171910000000001
25.80000000000001,0.718782
26.000000000000057,0.718299
26.200000000000045,0.7189030000000001
26.400000000000038,0.7196660000000001
26.600000000000023,0.7225079999999999
26.80000000000001,0.7264140000000001
27.000000000000057,0.7320200000000003
27.200000000000045,0.736904
27.400000000000038,0.7390880000000002
27.600000000000023,0.7410860000000001
27.80000000000001,0.7425420000000003
28.000000000000057,0.7442190000000002
28.200000000000045,0.7454689999999999
28.400000000000038,0.7497770000000004
28.600000000000023,0.7548920000000003
28.80000000000001,0.7609210000000002
29.000000000000057,0.765387
29.200000000000045,0.7694230000000002
29.400000000000038,0.7718990000000003
29.600000000000023,0.7730160000000001
29.80000000000001,0.7739890000000003
30.000000000000057,0.7758100000000003
30.200000000000045,0.7780400000000003
30.400000000000038,0.7814380000000001
30.600000000000023,0.784643
30.80000000000001,0.7872570000000003
31.000000000000057,0.7881100000000001
31.200000000000045,0.7898400000000003
31.400000000000038,0.7925530000000003
31.600000000000023,0.7961780000000003
31.80000000000001,0.7995749999999999
32.00000000000006,0.8039580000000002
32.200000000000045,0.8074430000000001
32.400000000000034,0.8100750000000003
32.60000000000002,0.8134300000000003
32.80000000000001,0.8165110000000002
33.00000000000006,0.8186460000000002
33.200000000000045,0.8207620000000002
33.400000000000034,0.8223800000000003
33.60000000000002,0.8201110000000003
33.80000000000001,0.8184990000000001
34.00000000000006,0.8184930000000001
34.200000000000045,0.8199879999999999
34.400000000000034,0.8220750000000003
34.60000000000002,0.8265340000000001
34.80000000000001,0.8308770000000001
35.00000000000006,0.8336580000000002
35.200000000000045,0.8346910000000003
35.400000000000034,0.8357830000000002
35.60000000000002,0.8383630000000002
35.80000000000001,0.8422350000000001
36.00000000000006,0.8479260000000002
36.200000000000045,0.8547830000000003
36.400000000000034,0.8601019999999999
36.60000000000002,0.8612489999999999
36.80000000000001,0.8601750000000004
37.00000000000006,0.8585780000000001
37.200000000000045,0.8580550000000002
37.400000000000034,0.8600690000000002
37.60000000000002,0.8666430000000003
37.80000000000001,0.8727390000000002
38.00000000000006,0.8786020000000003
38.200000000000045,0.8816280000000001
38.400000000000034,0.8829560000000001
38.60000000000002,0.8806450000000003
38.80000000000001,0.879111
39.00000000000006,0.8783650000000001
39.200000000000045,0.8797190000000001
39.400000000000034,0.8824160000000001
39.60000000000002,0.8869100000000003
39.80000000000001,0.8908750000000003
40.00000000000006,0.8931960000000001
40.200000000000045,0.895184
40.400000000000034,0.8970530000000001
40.60000000000002,0.899235
40.80000000000001,0.902575
41.00000000000006,0.9051
41.200000000000045,0.907406
41.400000000000034,0.9095080000000002
41.60000000000002,0.9107440000000002
41.80000000000001,0.9109610000000004
42.00000000000006,0.913074
42.200000000000045,0.9145670000000004
42.400000000000034,0.915139
42.60000000000002,0.9163870000000004
42.80000000000001,0.91973
43.00000000000006,0.921433
43.200000000000045,0.9233730000000002
43.400000000000034,0.9249740000000002
43.60000000000002,0.9270010000000002
43.80000000000001,0.928534
44.00000000000006,0.9323710000000004
44.200000000000045,0.9370670000000004
44.400000000000034,0.9401610000000002
44.60000000000002,0.9420010000000004
44.80000000000001,0.9427440000000002
45.00000000000006,0.942406
45.200000000000045,0.9420160000000002
45.400000000000034,0.943714
45.60000000000002,0.945755
45.80000000000001,0.9481840000000004
46.00000000000006,0.952157
46.200000000000045,0.954387
46.400000000000034,0.956731
46.60000000000002,0.959123
46.80000000000001,0.960585
47.00000000000006,0.960998
47.200000000000045,0.9608600000000004
47.400000000000034,0.961007
47.60000000000002,0.9614470000000002
47.80000000000001,0.9637980000000002
48.00000000000006,0.965001
48.200000000000045,0.966726
48.400000000000034,0.969205
48.60000000000002,0.971766
48.80000000000001,0.974138
49.00000000000006,0.9780700000000002
49.200000000000045,0.982533
49.400000000000034,0.9864960000000004
49.60000000000002,0.988257
49.80000000000001,0.989357
50.00000000000006,0.9896030000000002
50.200000000000045,0.990186
50.400000000000034,0.9911160000000004
50.60000000000002,0.9939750000000004
50.80000000000001,0.996737
51.00000000000006,0.9992200000000002
51.200000000000045,1.000449
51.400000000000034,1.0002650000000002
51.60000000000002,1.0003420000000005
51.80000000000001,1.0015110000000005
52.00000000000006,1.0036900000000002
52.200000000000045,1.0082940000000002
52.400000000000034,1.010256
52.60000000000002,1.010936
52.80000000000001,1.0094630000000002
53.00000000000006,1.0097560000000003
53.200000000000045,1.009907
53.400000000000034,1.011629
53.60000000000002,1.0139150000000003
53.80000000000001,1.0183440000000004
54.00000000000006,1.021925
54.200000000000045,1.024451
54.400000000000034,1.0267720000000002
54.60000000000002,1.028658
54.80000000000001,1.029278
55.00000000000006,1.0285260000000005
55.200000000000045,1.027123
55.400000000000034,1.027832
55.60000000000002,1.029541
55.80000000000001,1.032655
56.00000000000006,1.034815
56.200000000000045,1.0386550000000003
56.400000000000034,1.0399760000000002
56.60000000000002,1.040938
56.80000000000001,1.039298
57.00000000000006,1.039958
57.200000000000045,1.038355
57.400000000000034,1.039027
57.60000000000002,1.040028
57.80000000000001,1.042703
58.00000000000006,1.0444460000000002
58.200000000000045,1.047027
58.400000000000034,1.050087
58.60000000000002,1.0517250000000002
58.80000000000001,1.0529800000000002
59.00000000000006,1.0526210000000005
59.200000000000045,1.053315
59.400000000000034,1.05437
59.60000000000002,1.057305
59.80000000000001,1.0596520000000005
60.00000000000006,1.0634270000000003
60.200000000000045,1.065519
60.400000000000034,1.066745
60.60000000000002,1.0666930000000003
60.80000000000001,1.0681700000000005
61.00000000000006,1.0689040000000003
61.200000000000045,1.070183
61.400000000000034,1.0696630000000005
61.60000000000008,1.0708480000000002
61.80000000000001,1.070189
62.00000000000006,1.07172
62.19999999999999,1.0731860000000002
62.400000000000034,1.0751470000000003
62.60000000000008,1.0768460000000002
62.80000000000001,1.080689
63.00000000000006,1.082879
63.19999999999999,1.0848650000000002
63.400000000000034,1.087224
63.60000000000008,1.0893100000000002
63.80000000000001,1.089178
64.00000000000006,1.0883700000000005
64.19999999999999,1.088339
64.40000000000003,1.0895070000000002
64.60000000000008,1.089671
64.80000000000001,1.091028
65.00000000000006,1.091612
65.19999999999999,1.0921640000000004
65.40000000000003,1.091907
65.60000000000008,1.0930810000000002
65.80000000000001,1.093772
66.00000000000006,1.096051
66.19999999999999,1.097709
66.40000000000003,1.100123
66.60000000000008,1.1026230000000004
66.80000000000001,1.103879
67.00000000000006,1.1038450000000002
67.19999999999999,1.1041850000000002
67.40000000000003,1.1043890000000005
67.60000000000008,1.103815
67.80000000000001,1.104197
68.00000000000006,1.107209
68.19999999999999,1.1105170000000002
68.40000000000003,1.1134500000000005
68.60000000000008,1.1175320000000002
68.80000000000001,1.120896
69.00000000000006,1.121512
69.19999999999999,1.1218780000000002
69.40000000000003,1.123228
69.60000000000008,1.1248590000000005
69.80000000000001,1.125937
70.00000000000006,1.1279630000000005
70.19999999999999,1.128819
70.40000000000003,1.1299230000000002
70.60000000000008,1.129997
70.80000000000001,1.131691
71.00000000000006,1.1331070000000003
71.19999999999999,1.13519
71.40000000000003,1.135815
71.60000000000008,1.135504
71.80000000000001,1.134742
72.00000000000006,1.134913
72.19999999999999,1.1368910000000003
72.40000000000003,1.139211
72.60000000000008,1.1411860000000005
72.80000000000001,1.1433620000000002
73.00000000000006,1.1452680000000002
73.19999999999999,1.1468860000000003
73.40000000000003,1.148727
73.60000000000008,1.1503460000000003
73.80000000000001,1.150868
74.00000000000006,1.151005
74.19999999999999,1.1506850000000002
74.40000000000003,1.1504850000000002
74.60000000000008,1.149327
74.80000000000001,1.151738
75.00000000000006,1.1541260000000002
75.19999999999999,1.155005
75.40000000000003,1.154283
75.60000000000008,1.156508
75.80000000000001,1.156129
76.00000000000006,1.1560200000000005
76.19999999999999,1.1572240000000005
76.40000000000003,1.160418
76.60000000000008,1.162621
76.80000000000001,1.165871
77.00000000000006,1.1682620000000004
77.19999999999999,1.170979
77.40000000000003,1.171767
77.60000000000008,1.17034
77.80000000000001,1.1672060000000002
78.00000000000006,1.164488
78.19999999999999,1.1610240000000005
78.40000000000003,1.1590280000000002
78.60000000000008,1.160275
78.80000000000001,1.163275
79.00000000000006,1.1673720000000003
79.19999999999999,1.171382
79.40000000000003,1.1754390000000003
79.60000000000008,1.1770840000000002
79.80000000000001,1.176765
80.00000000000006,1.176444
80.19999999999999,1.176314
80.40000000000003,1.176781
80.60000000000008,1.178392
80.80000000000001,1.1811000000000005
81.00000000000006,1.1831650000000002
81.19999999999999,1.185712
81.40000000000003,1.186586
81.60000000000008,1.1884010000000005
81.80000000000001,1.189782
82.00000000000006,1.1910120000000002
82.19999999999999,1.190553
82.40000000000003,1.190811
82.60000000000008,1.1891470000000002
82.80000000000001,1.189537
83.00000000000006,1.1890810000000005
83.19999999999999,1.189998
83.40000000000003,1.1909170000000002
83.60000000000008,1.192848
83.80000000000001,1.1938630000000003
84.00000000000006,1.196081
84.19999999999999,1.1990350000000003
84.40000000000003,1.20101
84.60000000000008,1.202201
84.80000000000001,1.2012140000000002
85.00000000000006,1.2001760000000004
85.19999999999999,1.199109
85.40000000000003,1.1988790000000005
85.60000000000008,1.199529
85.80000000000001,1.2009090000000002
86.00000000000006,1.2023420000000002
86.19999999999999,1.2027830000000002
86.40000000000003,1.20432
86.60000000000008,1.205714
86.80000000000001,1.2077150000000003
87.00000000000006,1.208047
87.19999999999999,1.2089570000000005
87.40000000000003,1.2086620000000003
87.60000000000008,1.207983
87.80000000000001,1.2070160000000003
88.00000000000006,1.207547
88.19999999999999,1.208361
88.40000000000003,1.21035
88.60000000000008,1.2124320000000002
88.80000000000001,1.2160610000000005
89.00000000000006,1.2194100000000003
89.19999999999999,1.2218300000000002
89.40000000000003,1.222184
89.60000000000008,1.223024
89.80000000000001,1.22329
90.00000000000006,1.22362
90.2,1.2240550000000003
90.40000000000003,1.224005
90.60000000000008,1.2244320000000002
90.8,1.2221710000000003
91.00000000000006,1.2215860000000005
91.2,1.2217790000000002
91.40000000000003,1.223776
91.60000000000008,1.2227
91.8,1.2244300000000004
92.00000000000006,1.224958
92.2,1.2257570000000002
92.40000000000003,1.227579
92.60000000000008,1.2316260000000003
92.8,1.2329980000000005
93.00000000000006,1.2341390000000003
93.2,1.235049
93.40000000000003,1.23524
93.60000000000008,1.234976
93.8,1.2376870000000002
94.00000000000006,1.239148
94.2,1.241291
94.40000000000003,1.243103
94.60000000000008,1.245895
94.8,1.246169
95.00000000000006,1.2456690000000004
95.2,1.2441150000000003
95.40000000000003,1.2437270000000002
95.60000000000008,1.2423580000000003
95.8,1.243411
96.00000000000006,1.2451180000000002
96.2,1.2446450000000002
96.40000000000003,1.242585
96.60000000000008,1.2412360000000002
96.8,1.240609
97.00000000000006,1.242334
97.2,1.245835
97.40000000000003,1.248892
97.60000000000008,1.252628
97.8,1.255979
98.00000000000006,1.25734
98.2,1.257927
98.40000000000003,1.259499
98.60000000000008,1.2595110000000005
98.8,1.2584310000000003
99.00000000000006,1.2560770000000003
99.2,1.2553810000000003
99.40000000000003,1.2554190000000005
99.60000000000008,1.258299
99.8,1.260001
100.00000000000006,1.263408
100.2,1.2656400000000003
100.40000000000003,1.267785
100.60000000000008,1.2668720000000002
100.8,1.266356
101.00000000000006,1.266299
101.2,1.2666760000000004
101.40000000000003,1.2662470000000003
101.60000000000008,1.2670000000000003
101.8,1.2685250000000003
102.00000000000006,1.2691440000000005
102.2,1.269269
102.40000000000003,1.269518
102.60000000000008,1.269915
102.8,1.270451
103.00000000000006,1.271064
103.2,1.271029
103.40000000000003,1.2710950000000003
103.60000000000008,1.271957
103.8,1.2730770000000002
104.00000000000006,1.275109
104.2,1.278175
104.40000000000003,1.278835
104.60000000000008,1.2799580000000002
104.8,1.2804540000000002
105.00000000000006,1.283046
105.2,1.2839010000000002
105.40000000000003,1.2859790000000002
105.60000000000008,1.2835770000000002
105.8,1.283398
106.00000000000006,1.2827390000000003
106.2,1.2838760000000002
106.40000000000003,1.284021
106.60000000000008,1.2859510000000005
106.8,1.28669
107.00000000000006,1.286711
107.2,1.287106
107.40000000000003,1.289502
107.60000000000008,1.291916
107.8,1.293146
108.00000000000006,1.292065
108.2,1.2899310000000002
108.40000000000003,1.2865670000000002
108.60000000000008,1.283604
108.8,1.2826590000000002
109.00000000000006,1.2840760000000002
109.2,1.2866090000000003
109.40000000000003,1.2898780000000003
109.60000000000008,1.293383
109.8,1.297117
110.00000000000006,1.2982050000000005
110.2,1.2982110000000002
110.40000000000003,1.2977060000000002
110.60000000000008,1.29876
110.8,1.2970710000000003
111.00000000000006,1.2981670000000003
111.2,1.300599
111.40000000000003,1.3040100000000003
111.60000000000008,1.3047180000000005
111.8,1.3066780000000002
112.00000000000006,1.307566
112.2,1.3062210000000003
112.40000000000003,1.3042990000000003
112.60000000000008,1.303674
112.8,1.303553
113.00000000000006,1.303
113.2,1.302749
113.40000000000003,1.3022360000000002
113.60000000000008,1.3027160000000002
113.8,1.3034020000000002
114.00000000000006,1.304482
114.2,1.306473
114.40000000000003,1.3096010000000002
114.60000000000008,1.3122830000000003
114.8,1.313342
115.00000000000006,1.315102
115.2,1.31719
115.40000000000003,1.3181980000000002
115.60000000000008,1.3179160000000003
115.8,1.3176330000000005
116.00000000000006,1.3171240000000002
116.2,1.3156510000000003
116.40000000000003,1.3152190000000004
116.60000000000008,1.31488
116.8,1.316007
117.00000000000006,1.317818
117.2,1.3210330000000003
117.40000000000003,1.3222490000000002
117.60000000000008,1.324376
117.8,1.3269320000000002
118.00000000000006,1.3274820000000005
118.2,1.326063
118.40000000000003,1.3259880000000002
118.60000000000008,1.327497
118.8,1.3270340000000005
119.00000000000006,1.326638
119.2,1.327613
119.40000000000003,1.3277610000000002
119.60000000000008,1.325603
119.8,1.3231550000000003
120.00000000000006,1.3210190000000002
120.2,1.3188590000000002
120.40000000000003,1.318854
120.60000000000008,1.320767
120.8,1.3231160000000002
121.00000000000006,1.3253950000000003
121.2,1.3285370000000003
121.40000000000003,1.329279
121.60000000000008,1.329736
121.8,1.330965
122.00000000000006,1.3340390000000002
122.2,1.336948
122.40000000000003,1.3411300000000002
122.60000000000008,1.344056
122.8,1.345996
123.00000000000006,1.3453780000000002
123.2,1.3448640000000005
123.40000000000003,1.343105
123.60000000000008,1.3405330000000002
123.8,1.338749
124.00000000000006,1.337952
124.2,1.335499
124.40000000000003,1.334778
124.60000000000008,1.3346270000000002
124.8,1.3358190000000003
125.00000000000006,1.337319
125.2,1.339573
125.40000000000003,1.342187
125.60000000000008,1.3446960000000003
