Time (s),Shift (nm)
0.0,0.0
0.1999999999999886,-0.0038429999999998
0.4000000000000341,-0.00607
0.6000000000000227,-0.0082389999999998
0.8000000000000114,-0.0092219999999998
1.0,-0.0102229999999998
1.1999999999999886,-0.0082539999999999
1.400000000000034,-0.0053259999999999
1.6000000000000227,-0.0020289999999998
1.8000000000000114,0.001686
2.0,0.005905
2.1999999999999886,0.009902
2.400000000000034,0.0118310000000001
2.6000000000000227,0.0128940000000001
2.800000000000012,0.0108590000000001
3.0,0.0071149999999999
3.1999999999999886,0.0031160000000001
3.400000000000034,0.0025350000000001
3.6000000000000227,0.0040820000000001
3.8000000000000114,0.0088380000000001
4.0,0.015055
4.199999999999989,0.020615
4.400000000000034,0.0254450000000001
4.600000000000023,0.029031
4.800000000000011,0.0332799999999999
5.0,0.034143
5.199999999999989,0.0339280000000001
5.400000000000034,0.0324600000000001
5.600000000000023,0.032302
5.800000000000011,0.0294020000000001
6.0,0.0274229999999999
6.199999999999989,0.026709
6.400000000000034,0.028418
6.600000000000023,0.0280839999999999
6.800000000000011,0.029808
7.0,0.0312670000000001
7.199999999999989,0.032864
7.400000000000034,0.033266
7.600000000000023,0.03695
7.800000000000011,0.039805
8.0,0.0418660000000001
8.199999999999989,0.0433780000000001
8.400000000000034,0.0437180000000001
8.600000000000023,0.043946
8.800000000000011,0.044024
9.0,0.04665
9.199999999999989,0.0485550000000001
9.400000000000034,0.051242
9.600000000000025,0.0510220000000001
9.800000000000011,0.0500830000000001
10.0,0.048775
10.199999999999989,0.049471
10.400000000000034,0.05017
10.600000000000025,0.0534990000000001
10.800000000000011,0.0562930000000001
11.0,0.0587950000000001
11.199999999999989,0.058921
11.400000000000034,0.0610160000000001
11.600000000000025,0.0619420000000001
11.800000000000011,0.0634080000000001
12.0,0.0634350000000001
12.199999999999989,0.064597
12.400000000000034,0.064038
12.600000000000025,0.0658659999999999
12.800000000000011,0.0680660000000001
13.0,0.072834
13.199999999999989,0.076289
13.400000000000034,0.0781110000000002
13.600000000000025,0.0765929999999999
13.800000000000011,0.076724
14.0,0.0760529999999999
14.199999999999989,0.0761829999999998
14.400000000000034,0.0780549999999999
14.600000000000025,0.0790290000000002
14.800000000000011,0.0793029999999999
15.0,0.0784139999999999
15.199999999999989,0.080378
15.400000000000034,0.080778
15.600000000000025,0.084311
15.800000000000011,0.086662
16.0,0.0899130000000001
16.19999999999999,0.0905689999999999
16.400000000000034,0.0911650000000001
16.600000000000023,0.0907040000000001
16.80000000000001,0.0912700000000001
17.0,0.090535
17.19999999999999,0.0889470000000001
17.400000000000034,0.0885950000000002
17.600000000000023,0.090945
17.80000000000001,0.0927890000000002
18.0,0.0945270000000002
18.19999999999999,0.0965359999999999
18.400000000000038,0.0997180000000002
18.600000000000023,0.0995530000000002
18.80000000000001,0.1000350000000001
19.0,0.1008400000000002
19.19999999999999,0.101877
19.400000000000038,0.1021300000000002
19.600000000000023,0.1031340000000002
19.80000000000001,0.104324
20.0,0.1057710000000002
20.19999999999999,0.1088759999999999
20.400000000000038,0.1105019999999998
20.600000000000023,0.1103860000000001
20.80000000000001,0.1094720000000002
21.0,0.1103640000000001
21.19999999999999,0.111682
21.400000000000038,0.1139510000000001
21.600000000000023,0.1164689999999999
21.80000000000001,0.1178889999999999
22.0,0.1178379999999998
22.19999999999999,0.1155750000000002
22.400000000000038,0.1134919999999999
22.600000000000023,0.113766
22.80000000000001,0.115364
23.0,0.1167730000000002
23.19999999999999,0.1192299999999999
23.400000000000038,0.121979
23.600000000000023,0.1230470000000001
23.80000000000001,0.1241729999999998
24.0,0.1249410000000001
24.19999999999999,0.1260880000000002
24.400000000000038,0.1265460000000002
24.600000000000023,0.1283090000000002
24.80000000000001,0.1292759999999999
25.0,0.1308169999999999
25.19999999999999,0.1309870000000002
25.400000000000038,0.1308899999999999
25.600000000000023,0.1284689999999999
25.80000000000001,0.1290870000000001
26.0,0.129388
26.19999999999999,0.1310640000000003
26.400000000000038,0.131885
26.600000000000023,0.132346
26.80000000000001,0.1306510000000003
27.0,0.1303270000000003
27.19999999999999,0.1300060000000003
27.400000000000038,0.1306510000000003
27.600000000000023,0.132981
27.80000000000001,0.1356540000000001
28.0,0.1367380000000002
28.19999999999999,0.1372689999999998
28.400000000000038,0.1394770000000003
28.600000000000023,0.1422500000000002
28.80000000000001,0.1450879999999998
29.0,0.1482420000000002
29.19999999999999,0.1513550000000001
29.400000000000038,0.1519500000000002
29.600000000000023,0.152654
29.80000000000001,0.1538219999999999
30.0,0.1557509999999999
30.19999999999999,0.1569030000000002
30.400000000000038,0.159367
30.600000000000023,0.1596739999999998
30.80000000000001,0.1585390000000002
31.0,0.1581480000000001
31.19999999999999,0.158992
31.400000000000038,0.160457
31.600000000000023,0.162341
31.80000000000001,0.1638079999999999
32.0,0.164393
32.19999999999999,0.1645080000000001
32.400000000000034,0.16195
32.60000000000002,0.1588709999999999
32.80000000000001,0.1571419999999999
33.0,0.1566160000000001
33.19999999999999,0.1576490000000001
33.400000000000034,0.1613839999999999
33.60000000000002,0.166385
33.80000000000001,0.1687540000000003
34.0,0.1709710000000002
34.19999999999999,0.1703000000000001
34.400000000000034,0.168282
34.60000000000002,0.1652659999999999
34.80000000000001,0.1655519999999999
35.0,0.164771
35.19999999999999,0.1661290000000002
35.400000000000034,0.1652370000000003
35.60000000000002,0.1648770000000001
35.80000000000001,0.165521
36.0,0.1661070000000002
36.19999999999999,0.1659290000000002
36.400000000000034,0.1670389999999999
36.60000000000002,0.1689340000000001
36.80000000000001,0.1697779999999999
37.0,0.172714
37.19999999999999,0.1748039999999999
37.400000000000034,0.1786069999999999
37.60000000000002,0.1805639999999999
37.80000000000001,0.1810930000000001
38.0,0.180171
38.19999999999999,0.179716
38.400000000000034,0.1781329999999998
38.60000000000002,0.1782300000000001
38.80000000000001,0.179046
39.0,0.177864
39.19999999999999,0.1772879999999999
39.400000000000034,0.1792250000000002
39.60000000000002,0.181931
39.80000000000001,0.1824020000000001
40.0,0.1842950000000001
40.19999999999999,0.185696
40.400000000000034,0.1845270000000001
40.60000000000002,0.1827209999999999
40.80000000000001,0.1848939999999999
41.0,0.1877620000000002
41.19999999999999,0.1913520000000002
41.400000000000034,0.1941619999999999
41.60000000000002,0.196593
41.80000000000001,0.19652
42.0,0.1952910000000001
42.19999999999999,0.1938979999999999
42.400000000000034,0.1938390000000001
42.60000000000002,0.1944449999999999
42.80000000000001,0.19625
43.0,0.1975150000000001
43.19999999999999,0.197025
43.400000000000034,0.1963029999999999
43.60000000000002,0.1962250000000001
43.80000000000001,0.1972149999999999
44.0,0.1992280000000001
44.19999999999999,0.2022530000000002
44.400000000000034,0.2038329999999999
44.60000000000002,0.2051190000000002
44.80000000000001,0.2060249999999999
45.0,0.2065350000000001
45.19999999999999,0.2059269999999999
45.400000000000034,0.2069260000000001
45.60000000000002,0.2069520000000002
45.80000000000001,0.2050650000000002
46.0,0.2026829999999999
46.19999999999999,0.202976
46.400000000000034,0.2041690000000002
46.60000000000002,0.20656
46.80000000000001,0.2098919999999999
47.0,0.2131769999999999
47.19999999999999,0.2145030000000001
47.400000000000034,0.2135700000000002
47.60000000000002,0.2112129999999998
47.80000000000001,0.2098110000000002
48.0,0.2097860000000002
48.19999999999999,0.208917
48.400000000000034,0.208221
48.60000000000002,0.2095160000000002
48.80000000000001,0.2108530000000001
49.0,0.2116290000000003
49.19999999999999,0.2155590000000002
49.400000000000034,0.2198030000000002
49.60000000000002,0.2238190000000002
49.80000000000001,0.2256409999999999
50.0,0.2272509999999998
50.19999999999999,0.2272630000000002
50.400000000000034,0.2285330000000001
50.60000000000002,0.2283120000000003
50.80000000000001,0.22729
51.0,0.2269170000000002
51.19999999999999,0.2268129999999999
51.400000000000034,0.2278340000000001
51.60000000000002,0.227719
51.80000000000001,0.2293000000000002
52.0,0.2310210000000001
52.19999999999999,0.232272
52.400000000000034,0.2331690000000001
52.60000000000002,0.2328399999999999
52.80000000000001,0.2334149999999999
53.0,0.2326520000000003
53.19999999999999,0.231138
53.400000000000034,0.2281400000000002
53.60000000000002,0.2284900000000003
53.80000000000001,0.2289250000000002
54.0,0.2289080000000001
54.19999999999999,0.2312820000000002
54.400000000000034,0.2325349999999999
54.60000000000002,0.2329310000000002
54.80000000000001,0.2318530000000001
55.0,0.232882
55.19999999999999,0.2330719999999999
55.400000000000034,0.236218
55.60000000000002,0.2396530000000001
55.80000000000001,0.2423100000000002
56.0,0.244628
56.19999999999999,0.2463070000000002
56.400000000000034,0.2487870000000001
56.60000000000002,0.2508050000000001
56.80000000000001,0.2519490000000002
57.0,0.2484390000000003
57.19999999999999,0.2451440000000002
57.400000000000034,0.2416179999999999
57.60000000000002,0.2400510000000002
57.80000000000001,0.240361
58.0,0.2429330000000003
58.19999999999999,0.246477
58.400000000000034,0.248704
58.60000000000002,0.2495199999999999
58.80000000000001,0.2508349999999999
59.0,0.25298
59.19999999999999,0.2558600000000002
59.400000000000034,0.2594470000000002
59.60000000000002,0.263058
59.80000000000001,0.2637800000000001
60.0,0.264564
60.19999999999999,0.262639
60.400000000000034,0.2603020000000002
60.60000000000002,0.2575410000000002
60.80000000000001,0.2580170000000001
61.0,0.2606239999999999
61.19999999999999,0.2618309999999999
61.400000000000034,0.2613349999999999
61.60000000000002,0.2612339999999999
61.80000000000001,0.261568
62.00000000000006,0.2599979999999999
62.19999999999999,0.2599780000000002
62.400000000000034,0.2589510000000001
62.599999999999966,0.258226
62.80000000000001,0.258728
63.00000000000006,0.2604950000000001
63.19999999999999,0.262035
63.400000000000034,0.2650600000000001
63.599999999999966,0.2677590000000003
63.80000000000001,0.2668919999999999
64.00000000000006,0.264046
64.19999999999999,0.263052
64.40000000000003,0.2623839999999999
64.59999999999997,0.260729
64.80000000000001,0.2604920000000001
65.00000000000006,0.2631909999999999
65.19999999999999,0.2667830000000002
65.40000000000003,0.2695159999999998
65.59999999999997,0.2709410000000001
65.80000000000001,0.272119
66.00000000000006,0.271792
66.19999999999999,0.2697630000000002
66.40000000000003,0.2694110000000003
66.59999999999997,0.2717230000000001
66.80000000000001,0.2749130000000002
67.00000000000006,0.2773620000000001
67.19999999999999,0.2772049999999999
67.40000000000003,0.2762920000000002
67.59999999999997,0.2753049999999999
67.80000000000001,0.2753990000000001
68.00000000000006,0.2761370000000003
68.19999999999999,0.2765439999999999
68.40000000000003,0.2785519999999999
68.59999999999997,0.2804139999999999
68.80000000000001,0.2804860000000002
69.00000000000006,0.2787200000000003
69.19999999999999,0.2783380000000002
69.40000000000003,0.2781510000000002
69.59999999999997,0.2779720000000001
69.80000000000001,0.2756030000000002
70.00000000000006,0.2748080000000001
70.19999999999999,0.2761450000000001
70.40000000000003,0.2752780000000001
70.59999999999997,0.2746120000000003
70.80000000000001,0.2767080000000002
71.00000000000006,0.280183
71.19999999999999,0.2831559999999999
71.40000000000003,0.286848
71.59999999999997,0.2892369999999999
71.80000000000001,0.2905280000000001
72.00000000000006,0.2912300000000001
72.19999999999999,0.2911920000000001
72.40000000000003,0.2902270000000002
72.59999999999997,0.2899950000000002
72.80000000000001,0.2897340000000001
73.00000000000006,0.2886230000000003
73.19999999999999,0.288697
73.40000000000003,0.2900089999999999
73.59999999999997,0.292456
73.80000000000001,0.2929750000000002
74.00000000000006,0.2912430000000001
74.19999999999999,0.2906500000000003
74.40000000000003,0.2894049999999999
74.59999999999997,0.2877520000000002
74.80000000000001,0.2890860000000002
75.00000000000006,0.293606
75.19999999999999,0.2962120000000001
75.40000000000003,0.2975289999999999
75.59999999999997,0.2983150000000001
75.80000000000001,0.2991760000000001
76.00000000000006,0.3008420000000003
76.19999999999999,0.3023069999999999
76.40000000000003,0.302632
76.59999999999997,0.3022339999999999
76.80000000000001,0.301469
77.00000000000006,0.2995170000000002
77.19999999999999,0.2966679999999999
77.40000000000003,0.296707
77.59999999999997,0.2979340000000001
77.80000000000001,0.298581
78.00000000000006,0.2996500000000002
78.19999999999999,0.3026230000000001
78.40000000000003,0.3047080000000002
78.59999999999997,0.3063410000000002
78.80000000000001,0.3072630000000003
79.00000000000006,0.306886
79.19999999999999,0.3062339999999999
79.40000000000003,0.3074099999999999
79.59999999999997,0.3086440000000001
79.80000000000001,0.3098830000000001
80.00000000000006,0.3097449999999999
80.19999999999999,0.3102270000000002
80.40000000000003,0.3112050000000002
80.59999999999997,0.3109549999999998
80.80000000000001,0.3125200000000001
81.00000000000006,0.3157930000000002
81.19999999999999,0.3178460000000003
81.40000000000003,0.3188240000000002
81.59999999999997,0.3225450000000003
81.80000000000001,0.3239990000000001
82.00000000000006,0.324522
82.19999999999999,0.3250380000000001
82.40000000000003,0.324929
82.59999999999997,0.3218619999999998
82.80000000000001,0.3211379999999999
83.00000000000006,0.321523
83.19999999999999,0.3227229999999998
83.40000000000003,0.3237710000000002
83.59999999999997,0.3233459999999999
83.80000000000001,0.3215470000000002
84.00000000000006,0.3202440000000002
84.19999999999999,0.3217780000000001
84.40000000000003,0.323023
84.59999999999997,0.326854
84.80000000000001,0.3289010000000001
85.00000000000006,0.3318630000000002
85.19999999999999,0.332341
85.40000000000003,0.3330839999999999
85.59999999999997,0.3321870000000002
85.80000000000001,0.3339540000000003
86.00000000000006,0.3333599999999999
86.19999999999999,0.3318810000000001
86.40000000000003,0.3302510000000001
86.59999999999997,0.3297950000000003
86.80000000000001,0.3284630000000001
87.00000000000006,0.3288640000000002
87.19999999999999,0.3300520000000002
87.40000000000003,0.3311380000000001
87.59999999999997,0.3321260000000001
87.80000000000001,0.333056
88.00000000000006,0.3338969999999999
88.19999999999999,0.3358600000000002
88.40000000000003,0.338689
88.59999999999997,0.3413710000000001
88.80000000000001,0.3438110000000001
89.00000000000006,0.3455110000000001
89.19999999999999,0.3445659999999999
89.40000000000003,0.3421259999999999
89.59999999999997,0.3420810000000003
89.80000000000001,0.3424740000000001
90.00000000000006,0.341885
90.2,0.3426390000000001
90.40000000000003,0.3444899999999999
90.59999999999997,0.3453080000000001
90.8,0.3435040000000002
91.00000000000006,0.3415850000000002
91.2,0.3386930000000001
91.40000000000003,0.336395
91.59999999999997,0.3348819999999999
91.8,0.336376
92.00000000000006,0.338521
92.2,0.3409550000000001
92.40000000000003,0.3438780000000001
92.59999999999997,0.3435489999999999
92.8,0.341202
93.00000000000006,0.339931
93.2,0.3416730000000001
93.40000000000003,0.3414410000000001
93.59999999999997,0.3431390000000003
93.8,0.3464010000000002
94.00000000000006,0.348786
94.2,0.3481830000000001
94.40000000000003,0.3486910000000001
94.59999999999997,0.3508089999999999
94.8,0.3540399999999999
95.00000000000006,0.3569580000000001
95.2,0.3589549999999999
95.40000000000003,0.3591800000000003
95.59999999999997,0.3553350000000002
95.8,0.3519290000000001
96.00000000000006,0.3511890000000002
96.2,0.3527940000000003
96.40000000000003,0.3549660000000001
96.59999999999997,0.3605520000000002
96.8,0.3643900000000002
97.00000000000006,0.3649680000000002
97.2,0.3643900000000002
97.40000000000003,0.3640699999999999
97.59999999999997,0.3634409999999999
97.8,0.361491
98.00000000000006,0.360192
98.2,0.3577470000000002
98.40000000000003,0.3556270000000001
98.59999999999997,0.3528609999999998
98.8,0.3524940000000001
99.00000000000006,0.3540909999999999
99.2,0.3572709999999999
99.40000000000003,0.3602030000000003
99.59999999999997,0.362975
99.8,0.3628810000000002
100.00000000000006,0.3608660000000001
100.2,0.3591869999999999
100.40000000000003,0.360103
100.59999999999997,0.3610009999999999
100.8,0.3641510000000001
101.00000000000006,0.3673640000000002
101.2,0.3698520000000003
101.40000000000003,0.3679749999999999
101.59999999999997,0.3659110000000001
101.8,0.3642980000000002
102.00000000000006,0.3641380000000001
102.2,0.3657330000000001
102.40000000000003,0.3699140000000001
102.59999999999997,0.3741250000000002
102.8,0.3759550000000002
103.00000000000006,0.3777720000000002
103.2,0.3762530000000001
103.40000000000003,0.3756349999999999
103.59999999999997,0.3742049999999999
103.8,0.3749009999999999
104.00000000000006,0.3759170000000003
104.2,0.3795960000000002
104.40000000000003,0.381024
104.59999999999997,0.3829069999999999
104.8,0.3845510000000001
105.00000000000006,0.3841330000000003
105.2,0.3831540000000002
105.40000000000003,0.381561
105.59999999999997,0.379737
105.8,0.3771089999999999
106.00000000000006,0.3745510000000003
106.2,0.370784
106.40000000000003,0.3704290000000001
106.59999999999997,0.3705380000000002
106.8,0.3726259999999999
107.00000000000006,0.3754390000000001
107.2,0.378555
107.40000000000003,0.3793700000000002
107.59999999999997,0.3802850000000002
107.8,0.3799670000000001
108.00000000000006,0.3788629999999999
108.2,0.380039
108.40000000000003,0.382336
108.59999999999997,0.3847149999999999
108.8,0.3876970000000002
109.00000000000006,0.3905890000000003
109.2,0.3907050000000001
109.40000000000003,0.3922840000000001
109.59999999999997,0.3936200000000003
109.8,0.3921459999999999
110.00000000000006,0.393459
110.2,0.3963070000000002
110.40000000000003,0.3969750000000003
110.59999999999997,0.3953380000000002
110.8,0.3939409999999999
111.00000000000006,0.3933240000000002
111.2,0.392322
111.40000000000003,0.3929930000000001
111.59999999999997,0.3955199999999998
111.8,0.3982480000000001
112.00000000000006,0.400017
112.2,0.4018770000000002
112.40000000000003,0.4017509999999999
112.59999999999997,0.4006400000000001
112.8,0.4018770000000002
113.00000000000006,0.4028499999999999
113.2,0.4017310000000003
113.40000000000003,0.3994300000000002
113.59999999999997,0.3998159999999999
113.8,0.4011590000000002
114.00000000000006,0.4014610000000003
114.2,0.4032490000000002
114.40000000000003,0.404509
114.59999999999997,0.4048199999999999
114.8,0.4045420000000002
115.00000000000006,0.4039200000000003
115.2,0.4031190000000002
115.40000000000003,0.404071
115.59999999999997,0.4047209999999999
115.8,0.405637
116.00000000000006,0.4073980000000001
116.2,0.4082140000000001
116.40000000000003,0.4093590000000002
116.59999999999997,0.410476
116.8,0.4098999999999999
117.00000000000006,0.4081109999999999
117.2,0.4079060000000001
117.40000000000003,0.4080509999999999
117.59999999999997,0.4086430000000001
117.8,0.4106140000000002
118.00000000000006,0.4129070000000001
118.2,0.4126410000000002
118.40000000000003,0.4132150000000001
118.59999999999997,0.4127770000000001
118.8,0.4116249999999999
119.00000000000006,0.4109590000000001
119.2,0.4123350000000001
119.40000000000003,0.4128400000000001
119.59999999999997,0.4130350000000002
119.8,0.4149120000000001
120.00000000000006,0.4157890000000002
120.2,0.416773
120.40000000000003,0.415972
120.59999999999997,0.4164729999999998
120.8,0.4149039999999999
121.00000000000006,0.4140049999999999
121.2,0.413729
121.40000000000003,0.4160599999999999
121.59999999999997,0.4174820000000001
121.8,0.4182040000000002
122.00000000000006,0.4199239999999999
122.2,0.4213819999999999
122.40000000000003,0.4233830000000003
122.59999999999997,0.4253620000000002
122.8,0.4291010000000002
123.00000000000006,0.431689
123.2,0.431788
123.40000000000003,0.4299650000000001
