Time (s),Shift (nm)
0.0,0.0
0.1999999999999886,0.0051969999999998
0.3999999999999772,0.0084509999999999
0.5999999999999659,0.0101909999999998
0.7999999999999545,0.014075
1.0,0.0168289999999999
1.1999999999999886,0.0194469999999999
1.3999999999999773,0.021846
1.599999999999966,0.0251519999999998
1.7999999999999543,0.0294080000000001
2.0,0.0317560000000001
2.1999999999999886,0.0350570000000001
2.3999999999999773,0.0382329999999999
2.599999999999966,0.0410339999999997
2.7999999999999545,0.0412810000000001
3.0,0.0414409999999998
3.1999999999999886,0.0407009999999998
3.3999999999999773,0.0414240000000001
3.599999999999966,0.0418059999999997
3.7999999999999545,0.0426069999999998
4.0,0.0438469999999999
4.199999999999989,0.0446209999999998
4.399999999999977,0.04346
4.599999999999966,0.041414
4.7999999999999545,0.0384069999999998
5.0,0.035263
5.199999999999989,0.033938
5.399999999999977,0.0349919999999999
5.599999999999966,0.0344329999999999
5.7999999999999545,0.0340509999999998
6.0,0.0333239999999999
6.199999999999989,0.0308349999999997
6.399999999999977,0.028003
6.599999999999966,0.0295679999999998
6.7999999999999545,0.033452
7.0,0.037144
7.199999999999989,0.0418940000000001
7.399999999999977,0.044953
7.599999999999966,0.0455019999999999
7.799999999999954,0.0456159999999998
8.0,0.0440309999999999
8.199999999999989,0.0404649999999997
8.399999999999977,0.0386090000000001
8.599999999999966,0.0382889999999997
8.799999999999955,0.038812
9.0,0.0412780000000001
9.199999999999989,0.0435970000000001
9.399999999999975,0.0428749999999999
9.599999999999966,0.039762
9.799999999999956,0.036092
10.0,0.0332080000000001
10.199999999999989,0.034294
10.399999999999975,0.0382299999999999
10.599999999999966,0.043009
10.799999999999956,0.0465330000000001
11.0,0.0475789999999998
11.199999999999989,0.0451479999999997
11.399999999999975,0.041293
11.599999999999966,0.0383550000000001
11.799999999999956,0.035101
12.0,0.034548
12.199999999999989,0.0348709999999998
12.399999999999975,0.036283
12.599999999999966,0.0380880000000001
12.799999999999956,0.0410409999999998
13.0,0.0420469999999997
13.199999999999989,0.044375
13.399999999999975,0.042901
13.599999999999966,0.0402499999999999
13.799999999999956,0.0375499999999999
14.0,0.0351849999999998
14.199999999999989,0.0295990000000001
14.399999999999975,0.0295109999999998
14.599999999999966,0.0317069999999999
14.799999999999956,0.0350389999999998
15.0,0.0386630000000001
15.199999999999989,0.0436489999999998
15.399999999999975,0.0470329999999998
15.599999999999966,0.0482899999999997
15.799999999999956,0.0469319999999999
16.0,0.043314
16.19999999999999,0.041544
16.399999999999977,0.0396369999999999
16.599999999999966,0.0385599999999999
16.799999999999955,0.038316
17.0,0.0384289999999998
17.19999999999999,0.0374529999999997
17.399999999999977,0.0372919999999998
17.599999999999966,0.037217
17.799999999999955,0.038777
18.0,0.0435859999999999
18.19999999999999,0.0477370000000001
18.399999999999977,0.0489519999999998
18.59999999999997,0.0481439999999997
18.799999999999955,0.0454259999999999
19.0,0.0418629999999997
19.19999999999999,0.0392049999999999
19.399999999999977,0.0384109999999999
19.59999999999997,0.0390289999999997
19.799999999999955,0.0394499999999999
20.0,0.0404399999999998
20.19999999999999,0.0411869999999998
20.399999999999977,0.04204
20.59999999999997,0.0413769999999997
20.799999999999955,0.0400109999999998
21.0,0.0359169999999999
21.19999999999999,0.033833
21.399999999999977,0.0307399999999997
21.59999999999997,0.0303079999999997
21.799999999999955,0.0296289999999999
22.0,0.0315259999999999
22.19999999999999,0.0302199999999999
22.399999999999977,0.0299409999999999
22.59999999999997,0.0288479999999999
22.799999999999955,0.02949
23.0,0.03098
23.19999999999999,0.0323799999999998
23.399999999999977,0.0326969999999997
23.59999999999997,0.0317449999999999
23.799999999999955,0.0342340000000001
24.0,0.0359379999999998
24.19999999999999,0.0379830000000001
24.399999999999977,0.0386349999999997
24.59999999999997,0.0402230000000001
24.799999999999955,0.0388609999999998
25.0,0.0357880000000001
25.19999999999999,0.0337719999999999
25.399999999999977,0.0353369999999997
25.59999999999997,0.0346269999999999
25.799999999999955,0.0337849999999999
26.0,0.03254
26.19999999999999,0.030869
26.399999999999977,0.0279699999999998
26.59999999999997,0.0276469999999999
26.799999999999955,0.0273509999999999
27.0,0.0274480000000001
27.19999999999999,0.0281609999999998
27.399999999999977,0.028318
27.59999999999997,0.028626
27.799999999999955,0.0311539999999999
28.0,0.036388
28.19999999999999,0.0394169999999998
28.399999999999977,0.0424280000000001
28.59999999999997,0.044721
28.799999999999955,0.045058
29.0,0.0428589999999999
29.19999999999999,0.041004
29.399999999999977,0.0374219999999998
29.59999999999997,0.0335160000000001
29.799999999999955,0.0299960000000001
30.0,0.0302929999999999
30.19999999999999,0.0306639999999998
30.399999999999977,0.0333519999999998
30.59999999999997,0.0353119999999997
30.799999999999955,0.0369829999999997
31.0,0.0333389999999997
31.19999999999999,0.0308939999999999
31.399999999999977,0.0311019999999997
31.59999999999997,0.0321439999999997
31.799999999999955,0.0315400000000001
32.0,0.0330569999999998
32.19999999999999,0.0350570000000001
32.39999999999998,0.0354899999999998
32.599999999999966,0.034602
32.799999999999955,0.0344619999999999
33.0,0.033608
33.19999999999999,0.0351189999999999
33.39999999999998,0.0369459999999999
33.599999999999966,0.036426
33.799999999999955,0.035266
34.0,0.0352299999999998
34.19999999999999,0.0325569999999997
34.39999999999998,0.0281439999999997
34.599999999999966,0.0292050000000001
34.799999999999955,0.0335719999999999
35.0,0.0369269999999999
35.19999999999999,0.0386289999999998
35.39999999999998,0.0392269999999999
35.599999999999966,0.035994
35.799999999999955,0.0304829999999998
36.0,0.0279989999999998
36.19999999999999,0.0270579999999998
36.39999999999998,0.0283699999999997
36.599999999999966,0.0316299999999998
36.79999999999996,0.0351829999999999
37.0,0.0371019999999999
37.19999999999999,0.0382329999999999
37.39999999999998,0.0372799999999999
37.599999999999966,0.036118
37.79999999999996,0.0341049999999998
38.0,0.0320529999999998
38.19999999999999,0.0303749999999998
38.39999999999998,0.0302329999999999
38.599999999999966,0.0292879999999997
38.79999999999996,0.0286119999999998
39.0,0.0274649999999998
39.19999999999999,0.027908
39.39999999999998,0.0273409999999998
39.599999999999966,0.0274990000000001
39.79999999999996,0.0257480000000001
40.0,0.0268380000000001
40.19999999999999,0.0280899999999997
40.39999999999998,0.030507
40.599999999999966,0.03173
40.79999999999996,0.0326429999999997
41.0,0.0302500000000001
41.19999999999999,0.0277249999999997
41.39999999999998,0.0243280000000001
41.599999999999966,0.023854
41.79999999999996,0.0266489999999999
42.0,0.032111
42.19999999999999,0.0330399999999997
42.39999999999998,0.0331019999999999
42.599999999999966,0.0320559999999998
42.79999999999996,0.0320619999999998
43.0,0.0303789999999999
43.19999999999999,0.0347819999999998
43.39999999999998,0.0394429999999998
43.599999999999966,0.0428749999999999
43.79999999999996,0.0427159999999999
44.0,0.0408330000000001
44.19999999999999,0.0366149999999998
44.39999999999998,0.0336279999999997
44.599999999999966,0.0305499999999998
44.79999999999996,0.028483
45.0,0.0287699999999997
45.19999999999999,0.0313819999999998
45.39999999999998,0.0325489999999999
45.599999999999966,0.0331179999999999
45.79999999999996,0.0339299999999997
46.0,0.0355430000000001
46.19999999999999,0.034532
46.39999999999998,0.0336020000000001
46.599999999999966,0.0353259999999999
46.79999999999996,0.0365359999999999
47.0,0.035676
47.19999999999999,0.034256
47.39999999999998,0.033401
47.599999999999966,0.0295549999999997
47.79999999999996,0.0271629999999998
48.0,0.0250259999999999
48.19999999999999,0.0235499999999997
48.39999999999998,0.0243519999999999
48.599999999999966,0.0278849999999999
48.79999999999996,0.0296210000000001
49.0,0.0291920000000001
49.19999999999999,0.029563
49.39999999999998,0.0304519999999999
49.599999999999966,0.0313229999999999
49.79999999999996,0.0318269999999998
50.0,0.0350220000000001
50.19999999999999,0.0361059999999997
50.39999999999998,0.0378819999999997
50.599999999999966,0.0378859999999998
50.79999999999996,0.0401059999999997
51.0,0.0393149999999997
51.19999999999999,0.0416430000000001
51.39999999999998,0.0426549999999998
51.599999999999966,0.0425909999999998
51.79999999999996,0.0394639999999997
52.0,0.0373369999999999
52.19999999999999,0.0351409999999998
52.39999999999998,0.0317560000000001
52.599999999999966,0.0308669999999997
52.79999999999996,0.0321899999999999
53.0,0.035123
53.19999999999999,0.0362689999999998
53.39999999999998,0.0391099999999999
53.599999999999966,0.040766
53.79999999999996,0.0414659999999997
54.0,0.0417779999999998
54.19999999999999,0.0423219999999999
54.39999999999998,0.0399479999999998
54.599999999999966,0.0381059999999999
54.79999999999996,0.0377089999999999
55.0,0.0381489999999997
55.19999999999999,0.0364219999999999
55.39999999999998,0.03661
55.599999999999966,0.0353719999999997
55.79999999999996,0.034475
56.0,0.0364809999999997
56.19999999999999,0.0389289999999999
56.39999999999998,0.039063
56.599999999999966,0.0383459999999997
56.79999999999996,0.0383040000000001
57.0,0.035984
57.19999999999999,0.0344250000000001
57.39999999999998,0.0316109999999998
57.599999999999966,0.0312639999999997
57.79999999999996,0.033061
58.0,0.0319549999999999
58.19999999999999,0.0318939999999998
58.39999999999998,0.0338169999999999
58.599999999999966,0.0358100000000001
58.79999999999996,0.0331939999999999
59.0,0.0325799999999998
59.19999999999999,0.0321639999999998
59.39999999999998,0.0329019999999999
59.599999999999966,0.031873
59.79999999999996,0.0306969999999999
60.0,0.0325109999999999
60.19999999999999,0.034043
60.39999999999998,0.036016
60.599999999999966,0.0387999999999997
60.79999999999996,0.0432239999999999
61.0,0.043746
61.19999999999999,0.0432559999999999
61.39999999999998,0.0415009999999997
61.60000000000002,0.0389369999999997
61.79999999999996,0.0377489999999998
62.0,0.0405429999999999
62.19999999999993,0.0443389999999999
62.39999999999998,0.0446599999999999
62.60000000000002,0.043781
62.79999999999996,0.0409079999999999
63.0,0.0356119999999999
63.19999999999993,0.0309179999999997
63.39999999999998,0.031063
63.60000000000002,0.034602
63.79999999999996,0.0372810000000001
64.0,0.0383580000000001
64.19999999999993,0.0379119999999999
64.39999999999998,0.03716
64.60000000000002,0.0360519999999997
64.79999999999995,0.0367950000000001
65.0,0.037198
65.19999999999993,0.0394939999999999
65.39999999999998,0.041052
65.60000000000002,0.0417469999999999
65.79999999999995,0.0396689999999999
66.0,0.0396209999999999
66.19999999999993,0.0371700000000001
66.39999999999998,0.0352099999999997
66.60000000000002,0.0338989999999999
66.79999999999995,0.034513
67.0,0.032321
67.19999999999993,0.0310730000000001
67.39999999999998,0.0304759999999997
67.60000000000002,0.0327139999999999
67.79999999999995,0.0350459999999999
68.0,0.0384649999999999
68.19999999999993,0.0398579999999997
68.39999999999998,0.0405159999999997
68.60000000000002,0.0391080000000001
68.79999999999995,0.0391819999999998
69.0,0.0372249999999998
69.19999999999993,0.0365579999999998
69.39999999999998,0.0364520000000001
69.60000000000002,0.035762
69.79999999999995,0.0334949999999998
70.0,0.034011
70.19999999999993,0.036477
70.39999999999998,0.0370140000000001
70.60000000000002,0.037493
70.79999999999995,0.0368889999999999
71.0,0.0352190000000001
71.19999999999993,0.0322659999999999
71.39999999999998,0.0330140000000001
71.60000000000002,0.0347490000000001
71.79999999999995,0.0377329999999997
72.0,0.0410599999999998
72.19999999999993,0.0448719999999998
72.39999999999998,0.0433409999999998
72.60000000000002,0.0404040000000001
72.79999999999995,0.0376729999999998
73.0,0.0375929999999997
73.19999999999993,0.035838
73.39999999999998,0.036845
73.60000000000002,0.035387
73.79999999999995,0.0343649999999997
74.0,0.0329099999999997
74.19999999999993,0.0335
74.39999999999998,0.0317349999999998
74.60000000000002,0.0323729999999997
74.79999999999995,0.0322949999999999
75.0,0.0315059999999998
75.19999999999993,0.0312179999999999
75.39999999999998,0.0321729999999997
75.60000000000002,0.0337119999999999
75.79999999999995,0.0344139999999999
76.0,0.0336989999999999
76.19999999999993,0.0310920000000001
76.39999999999998,0.0299369999999998
76.60000000000002,0.0311819999999998
76.79999999999995,0.0320759999999999
77.0,0.032267
77.19999999999993,0.0344809999999999
77.39999999999998,0.0393409999999998
77.60000000000002,0.040826
77.79999999999995,0.0399449999999999
78.0,0.03797
78.19999999999993,0.0357669999999998
78.39999999999998,0.031927
78.60000000000002,0.0285950000000001
78.79999999999995,0.0296629999999997
79.0,0.03384
79.19999999999993,0.0368759999999999
79.39999999999998,0.039527
79.60000000000002,0.041681
79.79999999999995,0.041627
80.0,0.0397769999999999
80.19999999999993,0.0366529999999998
80.39999999999998,0.0328789999999998
80.60000000000002,0.0304159999999997
80.79999999999995,0.0300929999999999
81.0,0.0295229999999997
81.19999999999993,0.0316079999999998
81.39999999999998,0.030507
81.60000000000002,0.0283569999999997
81.79999999999995,0.0247999999999999
82.0,0.02543
82.19999999999993,0.025347
82.39999999999998,0.028788
82.60000000000002,0.03119
82.79999999999995,0.035158
83.0,0.0341709999999997
83.19999999999993,0.0331030000000001
83.39999999999998,0.0309099999999999
83.60000000000002,0.0317599999999997
83.79999999999995,0.0314169999999998
84.0,0.0319009999999999
84.19999999999993,0.0307179999999998
84.39999999999998,0.0290089999999998
84.60000000000002,0.0259740000000001
84.79999999999995,0.022548
85.0,0.0221070000000001
85.19999999999993,0.0230179999999999
85.39999999999998,0.0249410000000001
85.60000000000002,0.0284309999999998
85.79999999999995,0.034491
86.0,0.037074
86.19999999999993,0.0375869999999998
86.39999999999998,0.0389599999999998
86.60000000000002,0.0397549999999999
86.79999999999995,0.039063
87.0,0.0385249999999999
87.19999999999993,0.0415670000000001
87.39999999999998,0.040858
87.60000000000002,0.0370949999999998
87.79999999999995,0.0307149999999998
88.0,0.0278779999999998
88.19999999999993,0.0236719999999999
88.39999999999998,0.0218880000000001
88.60000000000002,0.0208469999999998
88.79999999999995,0.023705
89.0,0.0256319999999998
89.19999999999993,0.0269449999999999
89.39999999999998,0.0305710000000001
89.60000000000002,0.035158
89.79999999999995,0.038656
90.0,0.0376219999999998
90.19999999999992,0.0371229999999997
90.39999999999998,0.0337979999999999
90.60000000000002,0.0307209999999997
90.79999999999995,0.0285669999999997
91.0,0.0291399999999999
91.19999999999992,0.0302660000000001
91.39999999999998,0.032623
91.60000000000002,0.034863
91.79999999999995,0.034701
92.0,0.0319449999999998
92.19999999999992,0.0287980000000001
92.39999999999998,0.027088
92.60000000000002,0.0269699999999999
92.79999999999995,0.027619
93.0,0.0307159999999999
93.19999999999992,0.0323989999999998
93.39999999999998,0.0310709999999998
93.60000000000002,0.029007
93.79999999999995,0.029141
94.0,0.0300799999999998
94.19999999999992,0.0316589999999998
94.39999999999998,0.0330349999999999
94.60000000000002,0.0336849999999997
94.79999999999995,0.0321289999999998
95.0,0.0305239999999997
95.19999999999992,0.0295549999999997
95.39999999999998,0.029633
95.60000000000002,0.0291129999999997
95.79999999999995,0.0291860000000001
96.0,0.0293079999999998
96.19999999999992,0.0312909999999999
96.39999999999998,0.0324919999999999
96.60000000000002,0.0326149999999998
96.79999999999995,0.0310969999999999
97.0,0.0296009999999999
97.19999999999992,0.0294020000000001
97.39999999999998,0.0301169999999997
97.60000000000002,0.031069
97.79999999999995,0.0312779999999999
98.0,0.030901
98.19999999999992,0.0291449999999997
98.39999999999998,0.0292829999999999
98.60000000000002,0.0297640000000001
98.79999999999995,0.0313189999999998
99.0,0.035867
99.19999999999992,0.0385019999999998
99.39999999999998,0.0386899999999998
99.60000000000002,0.039965
99.79999999999995,0.0426060000000001
100.0,0.0383529999999998
100.19999999999992,0.0323099999999998
100.39999999999998,0.0286490000000001
100.60000000000002,0.0271859999999999
100.79999999999995,0.0263599999999999
101.0,0.0299119999999999
101.19999999999992,0.033608
101.39999999999998,0.034189
101.60000000000002,0.0329359999999998
101.79999999999995,0.0311629999999998
102.0,0.0292419999999999
102.19999999999992,0.0305059999999999
102.39999999999998,0.034472
102.60000000000002,0.0381329999999997
102.79999999999995,0.0386649999999999
103.0,0.037414
103.19999999999992,0.0344869999999999
103.39999999999998,0.0310809999999999
103.60000000000002,0.0287749999999999
103.79999999999995,0.0294099999999999
104.0,0.0297329999999997
104.19999999999992,0.0305979999999999
104.39999999999998,0.0313059999999998
104.60000000000002,0.0310169999999998
104.79999999999995,0.0294259999999999
105.0,0.0299689999999999
105.19999999999992,0.030888
105.39999999999998,0.0307509999999999
105.60000000000002,0.027886
105.79999999999995,0.0273949999999998
106.0,0.0263439999999999
106.19999999999992,0.0250559999999997
106.39999999999998,0.0257309999999999
106.60000000000002,0.0284839999999997
106.79999999999995,0.0300729999999997
107.0,0.0324459999999997
107.19999999999992,0.034596
107.39999999999998,0.0329299999999999
107.60000000000002,0.0294789999999998
107.79999999999995,0.027803
108.0,0.0271629999999998
108.19999999999992,0.0270199999999998
108.39999999999998,0.0286629999999998
108.60000000000002,0.0328819999999998
108.79999999999995,0.033779
109.0,0.032918
109.19999999999992,0.0300219999999997
109.39999999999998,0.027813
109.60000000000002,0.0255939999999998
109.79999999999995,0.0269759999999998
110.0,0.0295009999999997
110.19999999999992,0.0327869999999999
110.39999999999998,0.0345469999999998
110.60000000000002,0.0341420000000001
110.79999999999995,0.0327459999999999
111.0,0.0300720000000001
111.19999999999992,0.029312
111.39999999999998,0.0317229999999999
111.60000000000002,0.035425
111.79999999999995,0.0341169999999997
112.0,0.03315
112.19999999999992,0.0303040000000001
112.39999999999998,0.0281359999999999
112.60000000000002,0.0261879999999998
112.79999999999995,0.0273669999999999
113.0,0.0280779999999998
113.19999999999992,0.030888
113.39999999999998,0.0296009999999999
113.60000000000002,0.0274039999999997
113.79999999999995,0.0247319999999997
114.0,0.0248629999999998
114.19999999999992,0.022961
114.39999999999998,0.0239709999999999
114.60000000000002,0.0245410000000001
114.79999999999995,0.0271620000000001
115.0,0.0299519999999997
115.19999999999992,0.0309189999999999
115.39999999999998,0.030523
115.60000000000002,0.0307689999999998
115.79999999999995,0.0295929999999997
116.0,0.027031
116.19999999999992,0.026062
116.39999999999998,0.024709
116.60000000000002,0.0248629999999998
116.79999999999995,0.0258289999999998
117.0,0.0251670000000001
117.19999999999992,0.0251709999999998
117.39999999999998,0.0247220000000001
117.60000000000002,0.0240619999999998
117.79999999999995,0.0226459999999999
118.0,0.0216829999999998
118.19999999999992,0.02069
118.39999999999998,0.0204649999999997
118.60000000000002,0.0222679999999999
118.79999999999995,0.022834
119.0,0.0247399999999999
119.19999999999992,0.0282649999999997
119.39999999999998,0.0319569999999997
119.60000000000002,0.0323489999999999
119.79999999999995,0.0343759999999999
120.0,0.0377629999999999
120.19999999999992,0.0397289999999999
120.39999999999998,0.0377489999999998
120.60000000000002,0.0337079999999998
120.79999999999995,0.0317709999999999
121.0,0.0292019999999997
121.19999999999992,0.0281880000000001
121.39999999999998,0.028702
121.60000000000002,0.0300880000000001
121.79999999999995,0.0287159999999997
122.0,0.0270649999999998
122.19999999999992,0.0252799999999999
122.39999999999998,0.0282629999999999
122.60000000000002,0.0333799999999997
122.79999999999995,0.0361029999999997
123.0,0.0357799999999999
