Time (s),Shift (nm)
0.0,0.0
0.1999999999999886,-0.0002700000000002
0.4000000000000341,0.0026989999999997
0.6000000000000227,0.0073609999999999
0.8000000000000114,0.014021
1.0000000000000568,0.018051
1.2000000000000457,0.0213939999999999
1.400000000000034,0.023233
1.6000000000000227,0.024534
1.8000000000000114,0.0271779999999999
2.000000000000057,0.02949
2.200000000000045,0.0300139999999999
2.400000000000034,0.0322039999999999
2.6000000000000227,0.035768
2.800000000000012,0.0401719999999998
3.000000000000057,0.0448169999999998
3.200000000000045,0.050429
3.400000000000034,0.0551909999999999
3.6000000000000227,0.058505
3.8000000000000114,0.059501
4.000000000000057,0.060629
4.2000000000000455,0.0621279999999999
4.400000000000034,0.0639389999999999
4.600000000000023,0.064994
4.800000000000011,0.0652219999999998
5.000000000000057,0.0658989999999999
5.2000000000000455,0.0670199999999998
5.400000000000034,0.0681369999999998
5.600000000000023,0.0692699999999999
5.800000000000011,0.0732749999999999
6.000000000000057,0.074338
6.2000000000000455,0.0758389999999999
6.400000000000034,0.077423
6.600000000000023,0.0800779999999998
6.800000000000011,0.0832189999999999
7.000000000000057,0.0870599999999999
7.2000000000000455,0.0906179999999998
7.400000000000034,0.0927229999999998
7.600000000000023,0.095134
7.800000000000011,0.0963529999999999
8.000000000000057,0.0973359999999998
8.200000000000045,0.098584
8.400000000000034,0.0991839999999999
8.600000000000023,0.0998149999999999
8.800000000000011,0.1003719999999999
9.000000000000057,0.1034249999999998
9.200000000000044,0.1050249999999999
9.400000000000034,0.107126
9.600000000000025,0.1088259999999998
9.800000000000011,0.1126199999999999
10.000000000000057,0.115531
10.200000000000044,0.1169599999999999
10.400000000000034,0.1176479999999999
10.600000000000025,0.1178139999999998
10.800000000000011,0.1175789999999998
11.000000000000057,0.1175889999999999
11.200000000000044,0.119278
11.400000000000034,0.122676
11.600000000000025,0.1265009999999999
11.800000000000011,0.129507
12.000000000000057,0.130954
12.200000000000044,0.130473
12.400000000000034,0.12945
12.600000000000025,0.1288019999999998
12.800000000000011,0.1283779999999998
13.000000000000057,0.127313
13.200000000000044,0.1279619999999999
13.400000000000034,0.1299679999999998
13.600000000000025,0.1317949999999998
13.800000000000011,0.1329259999999998
14.000000000000057,0.135861
14.200000000000044,0.1379369999999999
14.400000000000034,0.1402019999999999
14.600000000000025,0.1431279999999999
14.800000000000011,0.145775
15.000000000000057,0.1468769999999999
15.200000000000044,0.1486639999999999
15.400000000000034,0.1503429999999999
15.600000000000025,0.1503529999999999
15.800000000000011,0.1506179999999999
16.000000000000057,0.152795
16.200000000000045,0.1565749999999999
16.400000000000034,0.1604049999999999
16.600000000000023,0.163373
16.80000000000001,0.1659189999999999
17.000000000000057,0.168628
17.200000000000045,0.1680899999999998
17.400000000000034,0.167302
17.600000000000023,0.1664299999999998
17.80000000000001,0.1671609999999999
18.000000000000057,0.1672019999999998
18.200000000000045,0.169748
18.400000000000038,0.1704809999999998
18.600000000000023,0.173216
18.80000000000001,0.175016
19.000000000000057,0.1765729999999998
19.200000000000045,0.175289
19.400000000000038,0.175751
19.600000000000023,0.1765769999999999
19.80000000000001,0.1804049999999999
20.000000000000057,0.184158
20.200000000000045,0.189813
20.400000000000038,0.192015
20.600000000000023,0.194493
20.80000000000001,0.195559
21.000000000000057,0.1982319999999999
21.200000000000045,0.198409
21.400000000000038,0.1989929999999999
21.600000000000023,0.1988289999999999
21.80000000000001,0.1984139999999998
22.000000000000057,0.1973249999999999
22.200000000000045,0.1976009999999999
22.400000000000038,0.202067
22.600000000000023,0.2054849999999999
22.80000000000001,0.2073149999999999
23.000000000000057,0.207476
23.200000000000045,0.2099249999999999
23.400000000000038,0.2088999999999998
23.600000000000023,0.2091309999999999
23.80000000000001,0.2087459999999998
24.000000000000057,0.209457
24.200000000000045,0.2085159999999999
24.400000000000038,0.2104059999999998
24.600000000000023,0.213082
24.80000000000001,0.2175639999999998
25.000000000000057,0.2214129999999998
25.200000000000045,0.2224299999999999
25.400000000000038,0.2213229999999999
25.600000000000023,0.220534
25.80000000000001,0.2215369999999998
26.000000000000057,0.2223649999999999
26.200000000000045,0.2261219999999999
26.400000000000038,0.2304269999999999
26.600000000000023,0.2324169999999998
26.80000000000001,0.2322269999999999
27.000000000000057,0.23146
27.200000000000045,0.2317389999999999
27.400000000000038,0.23299
27.600000000000023,0.235578
27.80000000000001,0.2372049999999999
28.000000000000057,0.24024
28.200000000000045,0.240939
28.400000000000038,0.239309
28.600000000000023,0.2356769999999999
28.80000000000001,0.233014
29.000000000000057,0.231389
29.200000000000045,0.2319009999999999
29.400000000000038,0.2347139999999998
29.600000000000023,0.2404349999999999
29.80000000000001,0.2461199999999999
30.000000000000057,0.2496659999999999
30.200000000000045,0.2526509999999999
30.400000000000038,0.2524519999999999
30.600000000000023,0.252518
30.80000000000001,0.2527399999999999
31.000000000000057,0.2529399999999999
31.200000000000045,0.2517419999999999
31.400000000000038,0.253743
31.600000000000023,0.256086
31.80000000000001,0.2588049999999999
32.00000000000006,0.259665
32.200000000000045,0.260202
32.400000000000034,0.258809
32.60000000000002,0.2557179999999999
32.80000000000001,0.2534259999999999
33.00000000000006,0.254016
33.200000000000045,0.2564059999999999
33.400000000000034,0.2597719999999999
33.60000000000002,0.2623689999999998
33.80000000000001,0.2645869999999999
34.00000000000006,0.2661099999999998
34.200000000000045,0.267851
34.400000000000034,0.2700519999999999
34.60000000000002,0.2736939999999999
34.80000000000001,0.277204
35.00000000000006,0.280513
35.200000000000045,0.2805759999999999
35.400000000000034,0.27824
35.60000000000002,0.2760019999999998
35.80000000000001,0.2717119999999999
36.00000000000006,0.2699559999999998
36.200000000000045,0.271519
36.400000000000034,0.2746269999999999
36.60000000000002,0.2766139999999999
36.80000000000001,0.2799859999999998
37.00000000000006,0.28112
37.200000000000045,0.2815939999999999
37.400000000000034,0.2816229999999999
37.60000000000002,0.282114
37.80000000000001,0.2817469999999999
38.00000000000006,0.282613
38.200000000000045,0.2842519999999999
38.400000000000034,0.285903
38.60000000000002,0.2876479999999999
38.80000000000001,0.287495
39.00000000000006,0.2872399999999999
39.200000000000045,0.285803
39.400000000000034,0.2845679999999999
39.60000000000002,0.2817389999999999
39.80000000000001,0.281757
40.00000000000006,0.281449
40.200000000000045,0.2829919999999999
40.400000000000034,0.2850399999999999
40.60000000000002,0.2907709999999999
40.80000000000001,0.2968189999999999
41.00000000000006,0.3023989999999998
41.200000000000045,0.3042289999999998
41.400000000000034,0.3038239999999998
41.60000000000002,0.303204
41.80000000000001,0.3041639999999999
42.00000000000006,0.3054179999999999
42.200000000000045,0.3074079999999999
42.400000000000034,0.3117459999999998
42.60000000000002,0.3155799999999999
42.80000000000001,0.3184719999999998
43.00000000000006,0.319434
43.200000000000045,0.3202959999999999
43.400000000000034,0.3196289999999999
43.60000000000002,0.316848
43.80000000000001,0.3127959999999998
44.00000000000006,0.3111729999999999
44.200000000000045,0.312608
44.400000000000034,0.315339
44.60000000000002,0.317523
44.80000000000001,0.319876
45.00000000000006,0.322246
45.200000000000045,0.322662
45.400000000000034,0.3226929999999999
45.60000000000002,0.324951
45.80000000000001,0.3258729999999998
46.00000000000006,0.326179
46.200000000000045,0.3262099999999999
46.400000000000034,0.3270659999999998
46.60000000000002,0.326408
46.80000000000001,0.3260619999999998
47.00000000000006,0.327156
47.200000000000045,0.330629
47.400000000000034,0.3335129999999999
47.60000000000002,0.3340909999999999
47.80000000000001,0.335202
48.00000000000006,0.335396
48.200000000000045,0.3336369999999999
48.400000000000034,0.3313679999999999
48.60000000000002,0.3327579999999999
48.80000000000001,0.3351459999999999
49.00000000000006,0.3366599999999999
49.200000000000045,0.3381889999999998
49.400000000000034,0.339569
49.60000000000002,0.3413269999999999
49.80000000000001,0.341404
50.00000000000006,0.3417809999999999
50.200000000000045,0.3427949999999999
50.400000000000034,0.3459959999999999
50.60000000000002,0.347715
50.80000000000001,0.3463259999999999
51.00000000000006,0.3433139999999999
51.200000000000045,0.3410469999999999
51.400000000000034,0.3401179999999999
51.60000000000002,0.3391649999999999
51.80000000000001,0.3419889999999999
52.00000000000006,0.346756
52.200000000000045,0.352071
52.400000000000034,0.3541729999999998
52.60000000000002,0.3548949999999999
52.80000000000001,0.3534159999999999
53.00000000000006,0.3519399999999999
53.200000000000045,0.3490109999999999
53.400000000000034,0.347855
53.60000000000002,0.348365
53.80000000000001,0.351089
54.00000000000006,0.3526439999999999
54.200000000000045,0.3550869999999999
54.400000000000034,0.3578219999999998
54.60000000000002,0.3599439999999998
54.80000000000001,0.3604450000000001
55.00000000000006,0.3618219999999998
55.200000000000045,0.3627779999999998
55.400000000000034,0.3601789999999998
55.60000000000002,0.358214
55.80000000000001,0.358109
56.00000000000006,0.3592030000000001
56.200000000000045,0.3589149999999999
56.400000000000034,0.3603799999999999
56.60000000000002,0.3613220000000001
56.80000000000001,0.3626669999999998
57.00000000000006,0.365324
57.200000000000045,0.3693999999999999
57.400000000000034,0.374627
57.60000000000002,0.3765409999999998
57.80000000000001,0.3777389999999998
58.00000000000006,0.37524
58.200000000000045,0.3735579999999998
58.400000000000034,0.372949
58.60000000000002,0.3748869999999999
58.80000000000001,0.3773929999999998
59.00000000000006,0.3805089999999997
59.200000000000045,0.3823640000000001
59.400000000000034,0.3806269999999998
59.60000000000002,0.3792099999999998
59.80000000000001,0.3789879999999999
60.00000000000006,0.3806749999999999
60.200000000000045,0.380311
60.400000000000034,0.3793629999999999
60.60000000000002,0.3797949999999999
60.80000000000001,0.378071
61.00000000000006,0.3757140000000001
61.200000000000045,0.3754329999999999
61.400000000000034,0.3772459999999997
61.60000000000008,0.3787589999999998
61.80000000000001,0.3816659999999998
62.00000000000006,0.3829849999999999
62.19999999999999,0.3844269999999998
62.400000000000034,0.3850329999999997
62.60000000000008,0.3858050000000002
62.80000000000001,0.385397
63.00000000000006,0.385845
63.19999999999999,0.3868389999999999
63.400000000000034,0.3894559999999998
63.60000000000008,0.391529
63.80000000000001,0.3943990000000001
64.00000000000006,0.3972939999999998
64.19999999999999,0.3985139999999998
64.40000000000003,0.3991230000000001
64.60000000000008,0.3999819999999998
64.80000000000001,0.4000549999999998
65.00000000000006,0.3989809999999998
65.19999999999999,0.3986759999999998
65.40000000000003,0.3999699999999999
65.60000000000008,0.3995550000000001
65.80000000000001,0.398865
66.00000000000006,0.399424
66.19999999999999,0.4006579999999997
66.40000000000003,0.4007419999999999
66.60000000000008,0.4018279999999998
66.80000000000001,0.4031079999999998
67.00000000000006,0.4046610000000001
67.19999999999999,0.4038229999999998
67.40000000000003,0.4006480000000001
67.60000000000008,0.396603
67.80000000000001,0.3955659999999998
68.00000000000006,0.3943229999999997
68.19999999999999,0.3954889999999997
68.40000000000003,0.3987909999999999
68.60000000000008,0.4014369999999998
68.80000000000001,0.4006649999999998
69.00000000000006,0.4004779999999999
69.19999999999999,0.3994669999999998
69.40000000000003,0.3993040000000001
69.60000000000008,0.3998809999999999
69.80000000000001,0.4039840000000001
70.00000000000006,0.406404
70.19999999999999,0.4079949999999999
70.40000000000003,0.4086369999999999
70.60000000000008,0.4120869999999998
70.80000000000001,0.4129120000000001
71.00000000000006,0.4136079999999997
71.19999999999999,0.4149580000000001
71.40000000000003,0.4165810000000001
71.60000000000008,0.4154729999999997
71.80000000000001,0.4147309999999999
72.00000000000006,0.4162749999999999
72.19999999999999,0.420781
72.40000000000003,0.4238619999999999
72.60000000000008,0.4263609999999997
72.80000000000001,0.4280479999999997
73.00000000000006,0.428056
73.19999999999999,0.4248999999999998
73.40000000000003,0.4238090000000001
73.60000000000008,0.4224080000000001
73.80000000000001,0.4209069999999999
74.00000000000006,0.4196630000000001
74.19999999999999,0.4201309999999998
74.40000000000003,0.4201979999999998
74.60000000000008,0.4229169999999997
74.80000000000001,0.4262050000000001
75.00000000000006,0.428657
75.19999999999999,0.428825
75.40000000000003,0.4266780000000001
75.60000000000008,0.4230750000000001
75.80000000000001,0.4224729999999999
76.00000000000006,0.4228859999999999
76.19999999999999,0.4246559999999999
76.40000000000003,0.4272539999999998
76.60000000000008,0.430747
76.80000000000001,0.4318229999999998
77.00000000000006,0.4321710000000001
77.19999999999999,0.4313269999999998
77.40000000000003,0.4327340000000002
77.60000000000008,0.4330390000000002
77.80000000000001,0.431843
78.00000000000006,0.4328800000000001
78.19999999999999,0.4356739999999999
78.40000000000003,0.438264
78.60000000000008,0.4402649999999999
78.80000000000001,0.4416550000000001
79.00000000000006,0.4400449999999998
79.19999999999999,0.438385
79.40000000000003,0.437276
79.60000000000008,0.4369439999999998
79.80000000000001,0.4369789999999998
80.00000000000006,0.4381779999999999
80.19999999999999,0.4397330000000001
80.40000000000003,0.4389429999999998
80.60000000000008,0.4402939999999999
80.80000000000001,0.4418879999999998
81.00000000000006,0.4426129999999999
81.19999999999999,0.4431369999999999
81.40000000000003,0.445378
81.60000000000008,0.445022
81.80000000000001,0.4436120000000001
82.00000000000006,0.4439619999999997
82.19999999999999,0.445308
82.40000000000003,0.446083
82.60000000000008,0.4483509999999999
82.80000000000001,0.4520820000000001
83.00000000000006,0.455427
83.19999999999999,0.4554799999999999
83.40000000000003,0.4543779999999999
83.60000000000008,0.4526099999999997
83.80000000000001,0.4512639999999999
84.00000000000006,0.4492589999999998
84.19999999999999,0.449143
84.40000000000003,0.4509540000000001
84.60000000000008,0.4524209999999999
84.80000000000001,0.4532209999999999
85.00000000000006,0.45421
85.19999999999999,0.4551800000000001
85.40000000000003,0.4536049999999998
85.60000000000008,0.4518859999999998
85.80000000000001,0.4513519999999997
86.00000000000006,0.4516509999999998
86.19999999999999,0.4518980000000001
86.40000000000003,0.4544940000000002
86.60000000000008,0.4572899999999997
86.80000000000001,0.4596519999999999
87.00000000000006,0.4608640000000001
87.19999999999999,0.4617600000000001
87.40000000000003,0.4612930000000002
87.60000000000008,0.4606939999999999
87.80000000000001,0.4613210000000001
88.00000000000006,0.461575
88.19999999999999,0.4610260000000001
88.40000000000003,0.460771
88.60000000000008,0.4617699999999998
88.80000000000001,0.4613219999999998
89.00000000000006,0.4611189999999998
89.19999999999999,0.4630080000000001
89.40000000000003,0.4645439999999998
89.60000000000008,0.465324
89.80000000000001,0.4656949999999999
90.00000000000006,0.4662939999999997
90.2,0.464631
90.40000000000003,0.465578
90.60000000000008,0.4691210000000001
90.8,0.4736640000000001
91.00000000000006,0.47801
91.2,0.4819060000000001
91.40000000000003,0.4822349999999999
91.60000000000008,0.478966
91.8,0.474178
92.00000000000006,0.4703109999999999
92.2,0.4674199999999999
92.40000000000003,0.4663969999999999
92.60000000000008,0.4665220000000001
92.8,0.4685469999999998
93.00000000000006,0.4710609999999999
93.2,0.4747609999999997
93.40000000000003,0.477549
93.60000000000008,0.4787190000000001
93.8,0.4793149999999999
94.00000000000006,0.4768839999999998
94.2,0.4734659999999999
94.40000000000003,0.4700650000000002
94.60000000000008,0.4687369999999997
94.8,0.468841
95.00000000000006,0.4734009999999997
95.2,0.4777289999999998
95.40000000000003,0.4800500000000001
95.60000000000008,0.4831070000000002
95.8,0.4849529999999997
96.00000000000006,0.4833079999999998
96.2,0.4815310000000001
96.40000000000003,0.484008
96.60000000000008,0.4851469999999998
96.8,0.4842920000000001
97.00000000000006,0.4835830000000001
97.2,0.4871429999999999
97.40000000000003,0.4897099999999998
97.60000000000008,0.4910799999999999
97.8,0.4922600000000001
98.00000000000006,0.493298
98.2,0.4907479999999997
98.40000000000003,0.4870020000000001
98.60000000000008,0.4831450000000001
98.8,0.4795909999999999
99.00000000000006,0.4771989999999999
99.2,0.476291
99.40000000000003,0.4763810000000001
99.60000000000008,0.4788599999999998
99.8,0.4840609999999998
100.00000000000006,0.490054
100.2,0.491932
100.40000000000003,0.4945790000000001
100.60000000000008,0.495719
100.8,0.4954739999999999
101.00000000000006,0.4918699999999998
101.2,0.4898960000000001
101.40000000000003,0.4888079999999999
101.60000000000008,0.4890579999999997
101.8,0.488818
102.00000000000006,0.4892769999999997
102.2,0.490988
102.40000000000003,0.4917679999999997
102.60000000000008,0.4926319999999997
102.8,0.4945160000000002
103.00000000000006,0.4984740000000001
103.2,0.5016939999999999
103.40000000000003,0.5013819999999998
103.60000000000008,0.5004489999999999
103.8,0.4979820000000001
104.00000000000006,0.4974100000000001
104.2,0.4957719999999999
104.40000000000003,0.4957559999999998
104.60000000000008,0.4951130000000001
104.8,0.497123
105.00000000000006,0.4964449999999998
105.2,0.4960029999999997
105.40000000000003,0.4964099999999998
105.60000000000008,0.4987380000000001
105.8,0.4991109999999998
106.00000000000006,0.5000150000000001
106.2,0.5010869999999998
106.40000000000003,0.5017379999999998
106.60000000000008,0.5012160000000001
106.8,0.5006039999999998
107.00000000000006,0.500043
107.2,0.5005919999999999
107.40000000000003,0.4991839999999998
107.60000000000008,0.4988300000000001
107.8,0.4988080000000001
108.00000000000006,0.4997130000000001
108.2,0.4999819999999999
108.40000000000003,0.5019609999999999
108.60000000000008,0.503773
108.8,0.5064269999999997
109.00000000000006,0.508154
109.2,0.507538
109.40000000000003,0.5065039999999998
109.60000000000008,0.504446
109.8,0.503798
110.00000000000006,0.5029109999999999
110.2,0.5047719999999998
110.40000000000003,0.5048700000000002
110.60000000000008,0.5049499999999998
110.8,0.5037239999999998
111.00000000000006,0.5040310000000001
111.2,0.5051919999999999
111.40000000000003,0.5070870000000001
111.60000000000008,0.507744
111.8,0.5086809999999999
112.00000000000006,0.5102260000000001
112.2,0.512421
112.40000000000003,0.5160370000000001
112.60000000000008,0.520529
112.8,0.5230970000000001
113.00000000000006,0.5225039999999999
113.2,0.520484
113.40000000000003,0.519026
113.60000000000008,0.5189099999999998
113.8,0.5179590000000001
114.00000000000006,0.518975
114.2,0.5201369999999998
114.40000000000003,0.5216549999999998
114.60000000000008,0.5200020000000001
114.8,0.5190439999999998
115.00000000000006,0.5177069999999999
115.2,0.516653
115.40000000000003,0.5147169999999999
115.60000000000008,0.5144230000000001
115.8,0.5159309999999999
116.00000000000006,0.5177889999999998
116.2,0.5204729999999997
116.40000000000003,0.522016
116.60000000000008,0.5258399999999999
116.8,0.5270460000000001
117.00000000000006,0.5273190000000001
117.2,0.5252169999999998
117.40000000000003,0.5237109999999998
117.60000000000008,0.520224
117.8,0.518534
118.00000000000006,0.5195990000000001
118.2,0.5240479999999998
118.40000000000003,0.5287369999999998
118.60000000000008,0.5313589999999999
118.8,0.5326280000000001
119.00000000000006,0.530851
119.2,0.5270140000000001
119.40000000000003,0.5248639999999998
119.60000000000008,0.5238759999999998
